SpectraSuite Data File
++++++++++++++++++++++++++++++++++++
Date: Sun Apr 24 16:32:58 CEST 2016
User: spectrasuite
Dark Spectrum Present: Yes
Reference Spectrum Present: Yes
Number of Sampled Component Spectra: 1
Spectrometers: HR+C0708
Integration Time (usec): 1000 (HR+C0708)
Spectra Averaged: 10 (HR+C0708)
Boxcar Smoothing: 0 (HR+C0708)
Correct for Electrical Dark: No (HR+C0708)
Strobe/Lamp Enabled: No (HR+C0708)
Correct for Detector Non-linearity: No (HR+C0708)
Correct for Stray Light: No (HR+C0708)
Number of Pixels in Processed Spectrum: 2048
>>>>>Begin Processed Spectral Data<<<<<
188.76	-0.000
189.23	-0.000
189.70	-0.000
190.17	-0.000
190.64	-0.000
191.12	-0.000
191.59	-0.000
192.06	-0.000
192.53	-0.000
193.01	-0.000
193.48	-0.000
193.95	-0.000
194.42	-0.000
194.90	-0.000
195.37	-0.000
195.84	-0.000
196.31	-0.000
196.78	-0.000
197.26	-0.000
197.73	-0.000
198.20	-0.000
198.67	-0.000
199.14	-0.000
199.62	-0.000
200.09	-0.000
200.56	-0.000
201.03	-0.000
201.50	-0.000
201.97	-0.000
202.45	-0.000
202.92	1.120
203.39	-0.000
203.86	-0.000
204.33	-0.000
204.80	-0.000
205.28	-0.000
205.75	-0.000
206.22	-0.000
206.69	-0.000
207.16	-0.000
207.63	-0.000
208.11	0.865
208.58	-0.000
209.05	-0.000
209.52	-0.000
209.99	-0.000
210.46	-0.000
210.93	-0.000
211.41	-0.000
211.88	1.320
212.35	-0.000
212.82	-0.000
213.29	1.214
213.76	-0.000
214.23	-0.000
214.70	-0.000
215.18	-0.000
215.65	-0.000
216.12	-0.000
216.59	-0.000
217.06	-0.000
217.53	-0.000
218.00	-0.000
218.47	1.355
218.94	1.748
219.41	-0.000
219.89	-0.000
220.36	-0.000
220.83	-0.000
221.30	-0.000
221.77	1.604
222.24	-0.000
222.71	2.244
223.18	-0.000
223.65	2.152
224.12	-0.000
224.59	-0.000
225.06	1.388
225.54	1.860
226.01	2.125
226.48	-0.000
226.95	2.414
227.42	-0.000
227.89	-0.000
228.36	-0.000
228.83	-0.000
229.30	2.994
229.77	-0.000
230.24	1.794
230.71	-0.000
231.18	-0.000
231.65	2.763
232.12	1.860
232.59	-0.000
233.06	-0.000
233.53	2.547
234.00	2.807
234.47	-0.000
234.94	-0.000
235.41	2.733
235.88	-0.000
236.35	-0.000
236.82	3.416
237.29	2.848
237.76	-0.000
238.23	-0.000
238.70	-0.000
239.17	2.626
239.64	2.957
240.11	-0.000
240.58	3.010
241.05	-0.000
241.52	-0.000
241.99	3.741
242.46	2.926
242.93	-0.000
243.40	-0.000
243.87	3.138
244.34	2.693
244.81	-0.000
245.28	-0.000
245.75	3.654
246.22	-0.000
246.69	-0.000
247.16	3.344
247.63	3.074
248.10	4.693
248.57	3.444
249.04	-0.000
249.51	-0.000
249.98	-0.000
250.45	3.134
250.92	3.366
251.39	-0.000
251.85	-0.000
252.32	-0.000
252.79	-0.000
253.26	-0.000
253.73	-0.000
254.20	3.059
254.67	3.257
255.14	3.786
255.61	3.451
256.08	3.534
256.55	-0.000
257.02	3.379
257.49	3.708
257.95	3.002
258.42	-0.000
258.89	3.149
259.36	2.978
259.83	3.333
260.30	-0.000
260.77	3.513
261.24	3.005
261.71	3.494
262.17	3.381
262.64	2.854
263.11	3.013
263.58	3.803
264.05	3.175
264.52	2.677
264.99	2.707
265.46	2.900
265.92	2.757
266.39	2.671
266.86	2.931
267.33	2.980
267.80	2.548
268.27	2.782
268.74	2.846
269.20	2.699
269.67	2.545
270.14	2.611
270.61	2.550
271.08	2.501
271.55	2.586
272.01	2.523
272.48	2.489
272.95	2.410
273.42	2.368
273.89	2.541
274.36	2.346
274.82	2.325
275.29	2.378
275.76	2.432
276.23	2.317
276.70	2.327
277.16	2.272
277.63	2.253
278.10	2.218
278.57	2.243
279.04	2.292
279.50	2.300
279.97	2.220
280.44	2.157
280.91	2.175
281.38	2.114
281.84	2.203
282.31	2.196
282.78	2.177
283.25	2.143
283.72	2.083
284.18	2.119
284.65	2.082
285.12	2.099
285.59	2.045
286.05	2.067
286.52	2.018
286.99	2.072
287.46	2.019
287.92	2.033
288.39	2.009
288.86	2.009
289.33	2.030
289.79	1.965
290.26	1.993
290.73	1.948
291.20	1.956
291.66	1.959
292.13	1.939
292.60	1.901
293.07	1.915
293.53	1.899
294.00	1.903
294.47	1.913
294.93	1.880
295.40	1.868
295.87	1.898
296.34	1.864
296.80	1.826
297.27	1.837
297.74	1.857
298.20	1.837
298.67	1.838
299.14	1.817
299.60	1.820
300.07	1.804
300.54	1.779
301.01	1.789
301.47	1.753
301.94	1.781
302.41	1.770
302.87	1.756
303.34	1.786
303.81	1.730
304.27	1.728
304.74	1.716
305.21	1.703
305.67	1.702
306.14	1.704
306.61	1.712
307.07	1.708
307.54	1.684
308.01	1.686
308.47	1.652
308.94	1.671
309.40	1.664
309.87	1.654
310.34	1.647
310.80	1.635
311.27	1.646
311.74	1.605
312.20	1.618
312.67	1.619
313.13	1.608
313.60	1.622
314.07	1.604
314.53	1.581
315.00	1.567
315.47	1.590
315.93	1.557
316.40	1.554
316.86	1.562
317.33	1.554
317.80	1.558
318.26	1.536
318.73	1.526
319.19	1.534
319.66	1.516
320.13	1.514
320.59	1.518
321.06	1.512
321.52	1.512
321.99	1.495
322.45	1.475
322.92	1.488
323.39	1.470
323.85	1.482
324.32	1.478
324.78	1.475
325.25	1.471
325.71	1.448
326.18	1.438
326.64	1.465
327.11	1.425
327.58	1.423
328.04	1.431
328.51	1.422
328.97	1.409
329.44	1.415
329.90	1.391
330.37	1.383
330.83	1.390
331.30	1.398
331.76	1.368
332.23	1.360
332.69	1.356
333.16	1.352
333.62	1.336
334.09	1.332
334.56	1.318
335.02	1.315
335.49	1.297
335.95	1.293
336.42	1.283
336.88	1.271
337.35	1.268
337.81	1.258
338.28	1.253
338.74	1.249
339.20	1.233
339.67	1.219
340.13	1.212
340.60	1.197
341.06	1.180
341.53	1.175
341.99	1.169
342.46	1.145
342.92	1.136
343.39	1.122
343.85	1.117
344.32	1.108
344.78	1.099
345.25	1.087
345.71	1.070
346.17	1.068
346.64	1.048
347.10	1.029
347.57	1.009
348.03	1.001
348.50	0.977
348.96	0.966
349.43	0.957
349.89	0.942
350.35	0.921
350.82	0.918
351.28	0.907
351.75	0.888
352.21	0.875
352.67	0.868
353.14	0.858
353.60	0.846
354.07	0.828
354.53	0.812
355.00	0.805
355.46	0.792
355.92	0.773
356.39	0.775
356.85	0.763
357.31	0.748
357.78	0.745
358.24	0.733
358.71	0.724
359.17	0.713
359.63	0.708
360.10	0.706
360.56	0.699
361.03	0.692
361.49	0.685
361.95	0.685
362.42	0.677
362.88	0.671
363.34	0.663
363.81	0.661
364.27	0.658
364.73	0.653
365.20	0.655
365.66	0.649
366.12	0.644
366.59	0.638
367.05	0.636
367.51	0.632
367.98	0.630
368.44	0.626
368.90	0.627
369.37	0.623
369.83	0.618
370.29	0.618
370.76	0.612
371.22	0.617
371.68	0.610
372.15	0.606
372.61	0.603
373.07	0.608
373.54	0.603
374.00	0.599
374.46	0.601
374.92	0.599
375.39	0.596
375.85	0.592
376.31	0.591
376.78	0.590
377.24	0.586
377.70	0.585
378.16	0.582
378.63	0.584
379.09	0.582
379.55	0.580
380.01	0.578
380.48	0.576
380.94	0.570
381.40	0.567
381.87	0.569
382.33	0.565
382.79	0.566
383.25	0.563
383.72	0.565
384.18	0.560
384.64	0.559
385.10	0.557
385.56	0.556
386.03	0.554
386.49	0.550
386.95	0.547
387.41	0.546
387.88	0.546
388.34	0.541
388.80	0.541
389.26	0.539
389.72	0.543
390.19	0.538
390.65	0.536
391.11	0.537
391.57	0.531
392.04	0.528
392.50	0.526
392.96	0.526
393.42	0.526
393.88	0.531
394.34	0.521
394.81	0.521
395.27	0.521
395.73	0.524
396.19	0.523
396.65	0.516
397.12	0.515
397.58	0.514
398.04	0.511
398.50	0.515
398.96	0.508
399.42	0.512
399.89	0.508
400.35	0.508
400.81	0.501
401.27	0.502
401.73	0.501
402.19	0.499
402.65	0.499
403.12	0.497
403.58	0.497
404.04	0.496
404.50	0.494
404.96	0.490
405.42	0.491
405.88	0.490
406.34	0.486
406.81	0.490
407.27	0.488
407.73	0.487
408.19	0.483
408.65	0.481
409.11	0.483
409.57	0.483
410.03	0.477
410.49	0.479
410.96	0.475
411.42	0.474
411.88	0.474
412.34	0.472
412.80	0.471
413.26	0.467
413.72	0.468
414.18	0.465
414.64	0.466
415.10	0.465
415.56	0.462
416.02	0.467
416.48	0.461
416.95	0.459
417.41	0.456
417.87	0.457
418.33	0.457
418.79	0.452
419.25	0.455
419.71	0.451
420.17	0.452
420.63	0.449
421.09	0.449
421.55	0.444
422.01	0.448
422.47	0.448
422.93	0.447
423.39	0.441
423.85	0.446
424.31	0.441
424.77	0.440
425.23	0.440
425.69	0.438
426.15	0.439
426.61	0.438
427.07	0.433
427.53	0.435
427.99	0.430
428.45	0.432
428.91	0.431
429.37	0.430
429.83	0.425
430.29	0.429
430.75	0.430
431.21	0.429
431.67	0.427
432.13	0.424
432.59	0.419
433.05	0.422
433.51	0.418
433.97	0.422
434.43	0.420
434.89	0.421
435.35	0.418
435.81	0.418
436.27	0.413
436.73	0.413
437.19	0.411
437.65	0.413
438.11	0.412
438.57	0.414
439.03	0.412
439.48	0.408
439.94	0.408
440.40	0.408
440.86	0.407
441.32	0.401
441.78	0.403
442.24	0.405
442.70	0.400
443.16	0.398
443.62	0.397
444.08	0.397
444.54	0.400
444.99	0.394
445.45	0.394
445.91	0.394
446.37	0.395
446.83	0.396
447.29	0.391
447.75	0.394
448.21	0.393
448.67	0.389
449.12	0.388
449.58	0.392
450.04	0.386
450.50	0.387
450.96	0.383
451.42	0.378
451.88	0.383
452.34	0.385
452.79	0.382
453.25	0.383
453.71	0.381
454.17	0.378
454.63	0.383
455.09	0.376
455.55	0.376
456.00	0.376
456.46	0.374
456.92	0.376
457.38	0.369
457.84	0.369
458.30	0.371
458.75	0.371
459.21	0.365
459.67	0.372
460.13	0.371
460.59	0.367
461.04	0.365
461.50	0.366
461.96	0.364
462.42	0.366
462.88	0.362
463.33	0.363
463.79	0.361
464.25	0.362
464.71	0.359
465.17	0.360
465.62	0.359
466.08	0.359
466.54	0.359
467.00	0.357
467.46	0.357
467.91	0.354
468.37	0.355
468.83	0.355
469.29	0.354
469.74	0.352
470.20	0.354
470.66	0.351
471.12	0.347
471.57	0.348
472.03	0.349
472.49	0.350
472.95	0.347
473.40	0.347
473.86	0.344
474.32	0.344
474.78	0.344
475.23	0.345
475.69	0.342
476.15	0.342
476.60	0.346
477.06	0.341
477.52	0.336
477.98	0.337
478.43	0.339
478.89	0.337
479.35	0.338
479.80	0.339
480.26	0.337
480.72	0.334
481.18	0.337
481.63	0.334
482.09	0.334
482.55	0.335
483.00	0.333
483.46	0.333
483.92	0.331
484.37	0.331
484.83	0.327
485.29	0.327
485.74	0.328
486.20	0.328
486.66	0.329
487.11	0.327
487.57	0.327
488.03	0.326
488.48	0.324
488.94	0.323
489.40	0.320
489.85	0.324
490.31	0.323
490.77	0.322
491.22	0.321
491.68	0.319
492.13	0.317
492.59	0.317
493.05	0.318
493.50	0.320
493.96	0.315
494.42	0.316
494.87	0.315
495.33	0.312
495.78	0.316
496.24	0.314
496.70	0.312
497.15	0.311
497.61	0.313
498.06	0.312
498.52	0.310
498.98	0.309
499.43	0.310
499.89	0.311
500.34	0.308
500.80	0.309
501.25	0.309
501.71	0.305
502.17	0.305
502.62	0.306
503.08	0.305
503.53	0.303
503.99	0.301
504.44	0.303
504.90	0.304
505.36	0.301
505.81	0.302
506.27	0.301
506.72	0.300
507.18	0.300
507.63	0.301
508.09	0.299
508.54	0.297
509.00	0.297
509.45	0.299
509.91	0.297
510.36	0.296
510.82	0.294
511.27	0.296
511.73	0.294
512.19	0.293
512.64	0.293
513.10	0.293
513.55	0.294
514.01	0.291
514.46	0.291
514.92	0.290
515.37	0.290
515.83	0.290
516.28	0.289
516.73	0.287
517.19	0.287
517.64	0.284
518.10	0.286
518.55	0.285
519.01	0.286
519.46	0.283
519.92	0.285
520.37	0.282
520.83	0.281
521.28	0.282
521.74	0.282
522.19	0.284
522.65	0.281
523.10	0.282
523.55	0.280
524.01	0.284
524.46	0.279
524.92	0.279
525.37	0.275
525.83	0.278
526.28	0.278
526.73	0.276
527.19	0.277
527.64	0.278
528.10	0.274
528.55	0.272
529.01	0.273
529.46	0.274
529.91	0.275
530.37	0.271
530.82	0.270
531.28	0.270
531.73	0.269
532.18	0.273
532.64	0.272
533.09	0.269
533.54	0.268
534.00	0.269
534.45	0.273
534.91	0.269
535.36	0.270
535.81	0.270
536.27	0.265
536.72	0.268
537.17	0.267
537.63	0.266
538.08	0.266
538.54	0.266
538.99	0.265
539.44	0.264
539.90	0.263
540.35	0.266
540.80	0.264
541.26	0.264
541.71	0.260
542.16	0.262
542.62	0.261
543.07	0.261
543.52	0.259
543.98	0.261
544.43	0.260
544.88	0.260
545.34	0.260
545.79	0.260
546.24	0.258
546.69	0.259
547.15	0.257
547.60	0.255
548.05	0.256
548.51	0.256
548.96	0.257
549.41	0.258
549.86	0.255
550.32	0.257
550.77	0.256
551.22	0.254
551.68	0.252
552.13	0.252
552.58	0.251
553.03	0.253
553.49	0.251
553.94	0.251
554.39	0.251
554.84	0.253
555.30	0.251
555.75	0.249
556.20	0.248
556.65	0.249
557.11	0.249
557.56	0.248
558.01	0.250
558.46	0.249
558.92	0.247
559.37	0.248
559.82	0.247
560.27	0.246
560.72	0.244
561.18	0.244
561.63	0.243
562.08	0.241
562.53	0.245
562.99	0.244
563.44	0.240
563.89	0.243
564.34	0.244
564.79	0.243
565.25	0.241
565.70	0.241
566.15	0.241
566.60	0.240
567.05	0.241
567.50	0.242
567.96	0.240
568.41	0.238
568.86	0.238
569.31	0.238
569.76	0.236
570.21	0.236
570.67	0.238
571.12	0.238
571.57	0.233
572.02	0.237
572.47	0.236
572.92	0.235
573.37	0.234
573.83	0.233
574.28	0.234
574.73	0.233
575.18	0.234
575.63	0.233
576.08	0.230
576.53	0.231
576.98	0.232
577.44	0.228
577.89	0.231
578.34	0.230
578.79	0.231
579.24	0.229
579.69	0.229
580.14	0.229
580.59	0.228
581.04	0.225
581.49	0.228
581.95	0.228
582.40	0.227
582.85	0.227
583.30	0.226
583.75	0.226
584.20	0.228
584.65	0.225
585.10	0.224
585.55	0.226
586.00	0.225
586.45	0.224
586.90	0.226
587.35	0.226
587.80	0.223
588.25	0.225
588.71	0.224
589.16	0.223
589.61	0.222
590.06	0.223
590.51	0.223
590.96	0.224
591.41	0.222
591.86	0.223
592.31	0.220
592.76	0.219
593.21	0.220
593.66	0.222
594.11	0.222
594.56	0.219
595.01	0.221
595.46	0.219
595.91	0.220
596.36	0.220
596.81	0.219
597.26	0.219
597.71	0.218
598.16	0.218
598.61	0.218
599.06	0.219
599.51	0.219
599.96	0.220
600.41	0.219
600.86	0.218
601.31	0.215
601.76	0.217
602.21	0.216
602.65	0.217
603.10	0.216
603.55	0.214
604.00	0.216
604.45	0.214
604.90	0.215
605.35	0.213
605.80	0.214
606.25	0.219
606.70	0.214
607.15	0.213
607.60	0.212
608.05	0.210
608.50	0.211
608.95	0.210
609.39	0.214
609.84	0.213
610.29	0.210
610.74	0.210
611.19	0.210
611.64	0.212
612.09	0.209
612.54	0.211
612.99	0.211
613.44	0.209
613.88	0.211
614.33	0.211
614.78	0.208
615.23	0.207
615.68	0.208
616.13	0.209
616.58	0.206
617.03	0.207
617.47	0.210
617.92	0.206
618.37	0.206
618.82	0.207
619.27	0.207
619.72	0.205
620.17	0.203
620.61	0.203
621.06	0.204
621.51	0.205
621.96	0.203
622.41	0.205
622.86	0.204
623.30	0.204
623.75	0.205
624.20	0.203
624.65	0.202
625.10	0.204
625.54	0.202
625.99	0.202
626.44	0.203
626.89	0.201
627.34	0.205
627.78	0.202
628.23	0.200
628.68	0.200
629.13	0.199
629.58	0.201
630.02	0.200
630.47	0.200
630.92	0.200
631.37	0.200
631.81	0.199
632.26	0.199
632.71	0.200
633.16	0.198
633.61	0.198
634.05	0.198
634.50	0.199
634.95	0.198
635.40	0.199
635.84	0.198
636.29	0.197
636.74	0.198
637.18	0.200
637.63	0.196
638.08	0.196
638.53	0.197
638.97	0.197
639.42	0.197
639.87	0.198
640.32	0.195
640.76	0.198
641.21	0.197
641.66	0.197
642.10	0.197
642.55	0.193
643.00	0.194
643.44	0.197
643.89	0.196
644.34	0.195
644.79	0.193
645.23	0.195
645.68	0.196
646.13	0.194
646.57	0.195
647.02	0.193
647.47	0.196
647.91	0.193
648.36	0.194
648.81	0.194
649.25	0.193
649.70	0.192
650.15	0.191
650.59	0.192
651.04	0.193
651.48	0.195
651.93	0.195
652.38	0.191
652.82	0.192
653.27	0.191
653.72	0.191
654.16	0.191
654.61	0.192
655.06	0.191
655.50	0.189
655.95	0.188
656.39	0.184
656.84	0.188
657.29	0.193
657.73	0.191
658.18	0.191
658.62	0.190
659.07	0.190
659.52	0.190
659.96	0.190
660.41	0.190
660.85	0.188
661.30	0.188
661.74	0.190
662.19	0.188
662.64	0.189
663.08	0.186
663.53	0.187
663.97	0.186
664.42	0.188
664.86	0.187
665.31	0.188
665.75	0.185
666.20	0.187
666.65	0.186
667.09	0.185
667.54	0.186
667.98	0.185
668.43	0.184
668.87	0.183
669.32	0.184
669.76	0.181
670.21	0.183
670.65	0.181
671.10	0.183
671.54	0.183
671.99	0.180
672.43	0.180
672.88	0.180
673.32	0.179
673.77	0.177
674.21	0.179
674.66	0.180
675.10	0.178
675.55	0.176
675.99	0.179
676.44	0.177
676.88	0.178
677.33	0.175
677.77	0.178
678.22	0.173
678.66	0.175
679.11	0.174
679.55	0.174
679.99	0.173
680.44	0.175
680.88	0.172
681.33	0.170
681.77	0.170
682.22	0.172
682.66	0.173
683.11	0.171
683.55	0.170
683.99	0.170
684.44	0.168
684.88	0.169
685.33	0.168
685.77	0.170
686.21	0.167
686.66	0.167
687.10	0.165
687.55	0.166
687.99	0.166
688.44	0.168
688.88	0.167
689.32	0.167
689.77	0.165
690.21	0.165
690.65	0.163
691.10	0.164
691.54	0.162
691.99	0.163
692.43	0.162
692.87	0.161
693.32	0.163
693.76	0.164
694.20	0.162
694.65	0.162
695.09	0.161
695.53	0.159
695.98	0.159
696.42	0.162
696.86	0.160
697.31	0.160
697.75	0.159
698.19	0.159
698.64	0.160
699.08	0.158
699.52	0.158
699.97	0.160
700.41	0.158
700.85	0.159
701.30	0.156
701.74	0.157
702.18	0.158
702.63	0.157
703.07	0.158
703.51	0.160
703.96	0.159
704.40	0.157
704.84	0.157
705.28	0.156
705.73	0.157
706.17	0.159
706.61	0.154
707.06	0.157
707.50	0.155
707.94	0.154
708.38	0.154
708.83	0.158
709.27	0.157
709.71	0.154
710.15	0.155
710.60	0.153
711.04	0.154
711.48	0.157
711.92	0.154
712.37	0.152
712.81	0.156
713.25	0.156
713.69	0.154
714.13	0.156
714.58	0.156
715.02	0.153
715.46	0.153
715.90	0.153
716.35	0.152
716.79	0.154
717.23	0.155
717.67	0.152
718.11	0.156
718.56	0.152
719.00	0.153
719.44	0.154
719.88	0.151
720.32	0.150
720.76	0.152
721.21	0.153
721.65	0.151
722.09	0.153
722.53	0.152
722.97	0.152
723.41	0.152
723.86	0.154
724.30	0.152
724.74	0.154
725.18	0.153
725.62	0.152
726.06	0.153
726.50	0.152
726.95	0.151
727.39	0.152
727.83	0.151
728.27	0.152
728.71	0.152
729.15	0.152
729.59	0.151
730.03	0.149
730.48	0.151
730.92	0.151
731.36	0.152
731.80	0.153
732.24	0.153
732.68	0.150
733.12	0.148
733.56	0.152
734.00	0.152
734.44	0.152
734.89	0.151
735.33	0.155
735.77	0.154
736.21	0.151
736.65	0.150
737.09	0.153
737.53	0.152
737.97	0.154
738.41	0.150
738.85	0.153
739.29	0.153
739.73	0.149
740.17	0.152
740.61	0.152
741.05	0.152
741.49	0.150
741.93	0.150
742.37	0.150
742.81	0.151
743.26	0.151
743.70	0.150
744.14	0.148
744.58	0.150
745.02	0.151
745.46	0.148
745.90	0.149
746.34	0.149
746.78	0.152
747.22	0.148
747.66	0.150
748.10	0.151
748.54	0.149
748.98	0.150
749.42	0.149
749.86	0.150
750.29	0.148
750.73	0.147
751.17	0.147
751.61	0.146
752.05	0.147
752.49	0.148
752.93	0.146
753.37	0.148
753.81	0.145
754.25	0.146
754.69	0.144
755.13	0.145
755.57	0.146
756.01	0.149
756.45	0.147
756.89	0.145
757.33	0.148
757.77	0.147
758.21	0.145
758.64	0.144
759.08	0.141
759.52	0.146
759.96	0.148
760.40	0.144
760.84	0.143
761.28	0.144
761.72	0.143
762.16	0.147
762.60	0.143
763.03	0.144
763.47	0.143
763.91	0.144
764.35	0.143
764.79	0.142
765.23	0.139
765.67	0.142
766.11	0.141
766.54	0.139
766.98	0.141
767.42	0.141
767.86	0.137
768.30	0.142
768.74	0.146
769.17	0.144
769.61	0.143
770.05	0.143
770.49	0.144
770.93	0.143
771.37	0.140
771.80	0.140
772.24	0.140
772.68	0.141
773.12	0.142
773.56	0.137
774.00	0.140
774.43	0.138
774.87	0.139
775.31	0.140
775.75	0.138
776.19	0.139
776.62	0.138
777.06	0.140
777.50	0.141
777.94	0.139
778.37	0.139
778.81	0.141
779.25	0.139
779.69	0.137
780.13	0.139
780.56	0.137
781.00	0.139
781.44	0.140
781.88	0.138
782.31	0.137
782.75	0.135
783.19	0.139
783.63	0.135
784.06	0.136
784.50	0.139
784.94	0.138
785.37	0.139
785.81	0.137
786.25	0.135
786.69	0.135
787.12	0.137
787.56	0.135
788.00	0.138
788.43	0.139
788.87	0.137
789.31	0.136
789.75	0.137
790.18	0.136
790.62	0.136
791.06	0.136
791.49	0.132
791.93	0.133
792.37	0.136
792.80	0.133
793.24	0.135
793.68	0.137
794.11	0.134
794.55	0.139
794.99	0.136
795.42	0.135
795.86	0.137
796.30	0.134
796.73	0.135
797.17	0.138
797.61	0.131
798.04	0.136
798.48	0.134
798.91	0.132
799.35	0.132
799.79	0.138
800.22	0.133
800.66	0.133
801.10	0.138
801.53	0.133
801.97	0.139
802.40	0.135
802.84	0.134
803.28	0.132
803.71	0.135
804.15	0.133
804.58	0.134
805.02	0.135
805.46	0.137
805.89	0.133
806.33	0.132
806.76	0.133
807.20	0.132
807.63	0.127
808.07	0.135
808.51	0.132
808.94	0.132
809.38	0.134
809.81	0.132
810.25	0.132
810.68	0.137
811.12	0.137
811.55	0.132
811.99	0.130
812.42	0.130
812.86	0.129
813.29	0.132
813.73	0.131
814.17	0.128
814.60	0.132
815.04	0.132
815.47	0.128
815.91	0.129
816.34	0.131
816.78	0.129
817.21	0.135
817.65	0.134
818.08	0.130
818.52	0.133
818.95	0.133
819.39	0.130
819.82	0.135
820.25	0.128
820.69	0.127
821.12	0.134
821.56	0.132
821.99	0.129
822.43	0.131
822.86	0.133
823.30	0.129
823.73	0.129
824.17	0.130
824.60	0.128
825.04	0.129
825.47	0.129
825.90	0.133
826.34	0.129
826.77	0.131
827.21	0.132
827.64	0.130
828.08	0.129
828.51	0.125
828.94	0.130
829.38	0.128
829.81	0.135
830.25	0.133
830.68	0.135
831.11	0.132
831.55	0.136
831.98	0.134
832.42	0.133
832.85	0.135
833.28	0.134
833.72	0.137
834.15	0.131
834.58	0.136
835.02	0.132
835.45	0.136
835.88	0.134
836.32	0.135
836.75	0.140
837.19	0.134
837.62	0.131
838.05	0.135
838.49	0.133
838.92	0.133
839.35	0.134
839.79	0.133
840.22	0.136
840.65	0.136
841.09	0.137
841.52	0.135
841.95	0.135
842.39	0.131
842.82	0.134
843.25	0.132
843.68	0.135
844.12	0.139
844.55	0.134
844.98	0.136
845.42	0.135
845.85	0.132
846.28	0.134
846.71	0.129
847.15	0.136
847.58	0.137
848.01	0.140
848.45	0.136
848.88	0.139
849.31	0.139
849.74	0.136
850.18	0.133
850.61	0.137
851.04	0.137
851.47	0.130
851.91	0.135
852.34	0.137
852.77	0.136
853.20	0.133
853.64	0.134
854.07	0.138
854.50	0.138
854.93	0.138
855.36	0.132
855.80	0.138
856.23	0.131
856.66	0.136
857.09	0.139
857.52	0.135
857.96	0.134
858.39	0.133
858.82	0.132
859.25	0.133
859.68	0.135
860.12	0.133
860.55	0.135
860.98	0.133
861.41	0.135
861.84	0.132
862.27	0.130
862.71	0.131
863.14	0.135
863.57	0.134
864.00	0.131
864.43	0.139
864.86	0.131
865.30	0.136
865.73	0.138
866.16	0.134
866.59	0.138
867.02	0.128
867.45	0.134
867.88	0.138
868.31	0.138
868.75	0.136
869.18	0.140
869.61	0.136
870.04	0.135
870.47	0.140
870.90	0.135
871.33	0.140
871.76	0.131
872.19	0.136
872.62	0.137
873.06	0.131
873.49	0.134
873.92	0.136
874.35	0.137
874.78	0.138
875.21	0.130
875.64	0.131
876.07	0.142
876.50	0.137
876.93	0.141
877.36	0.140
877.79	0.138
878.22	0.134
878.65	0.136
879.08	0.136
879.51	0.139
879.94	0.138
880.37	0.142
880.80	0.145
881.23	0.133
881.67	0.139
882.10	0.141
882.53	0.135
882.96	0.140
883.39	0.143
883.82	0.138
884.25	0.144
884.68	0.140
885.11	0.138
885.54	0.141
885.97	0.139
886.39	0.130
886.82	0.136
887.25	0.140
887.68	0.142
888.11	0.137
888.54	0.138
888.97	0.136
889.40	0.138
889.83	0.137
890.26	0.137
890.69	0.134
891.12	0.137
891.55	0.146
891.98	0.137
892.41	0.136
892.84	0.138
893.27	0.134
893.70	0.138
894.13	0.140
894.56	0.140
894.98	0.145
895.41	0.145
895.84	0.141
896.27	0.142
896.70	0.143
897.13	0.141
897.56	0.139
897.99	0.138
898.42	0.132
898.85	0.144
899.27	0.139
899.70	0.144
900.13	0.136
900.56	0.142
900.99	0.140
901.42	0.142
901.85	0.142
902.28	0.140
902.70	0.139
903.13	0.140
903.56	0.143
903.99	0.136
904.42	0.140
904.85	0.139
905.27	0.137
905.70	0.144
906.13	0.142
906.56	0.139
906.99	0.142
907.42	0.137
907.84	0.137
908.27	0.142
908.70	0.141
909.13	0.136
909.56	0.137
909.98	0.137
910.41	0.141
910.84	0.140
911.27	0.142
911.70	0.137
912.12	0.136
912.55	0.136
912.98	0.140
913.41	0.143
913.84	0.139
914.26	0.140
914.69	0.138
915.12	0.145
915.55	0.135
915.97	0.142
916.40	0.141
916.83	0.135
917.26	0.143
917.68	0.140
918.11	0.139
918.54	0.136
918.97	0.138
919.39	0.141
919.82	0.138
920.25	0.136
920.67	0.139
921.10	0.144
921.53	0.141
921.96	0.145
922.38	0.142
922.81	0.142
923.24	0.145
923.66	0.141
924.09	0.147
924.52	0.145
924.94	0.143
925.37	0.143
925.80	0.150
926.22	0.146
926.65	0.144
927.08	0.150
927.50	0.146
927.93	0.149
928.36	0.145
928.78	0.149
929.21	0.145
929.64	0.150
930.06	0.156
930.49	0.153
930.92	0.157
931.34	0.155
931.77	0.157
932.20	0.156
932.62	0.152
933.05	0.158
933.47	0.160
933.90	0.158
934.33	0.158
934.75	0.161
935.18	0.165
935.61	0.162
936.03	0.162
936.46	0.167
936.88	0.164
937.31	0.164
937.73	0.171
938.16	0.167
938.59	0.172
939.01	0.177
939.44	0.175
939.86	0.174
940.29	0.177
940.71	0.174
941.14	0.184
941.57	0.181
941.99	0.178
942.42	0.184
942.84	0.192
943.27	0.195
943.69	0.191
944.12	0.188
944.54	0.203
944.97	0.193
945.39	0.195
945.82	0.202
946.24	0.204
946.67	0.203
947.09	0.206
947.52	0.210
947.94	0.210
948.37	0.219
948.79	0.211
949.22	0.221
949.64	0.211
950.07	0.227
950.49	0.224
950.92	0.221
951.34	0.228
951.77	0.231
952.19	0.231
952.62	0.238
953.04	0.236
953.47	0.251
953.89	0.245
954.32	0.246
954.74	0.246
955.17	0.246
955.59	0.253
956.01	0.253
956.44	0.261
956.86	0.262
957.29	0.262
957.71	0.273
958.14	0.265
958.56	0.269
958.98	0.272
959.41	0.274
959.83	0.279
960.26	0.273
960.68	0.282
961.10	0.283
961.53	0.282
961.95	0.287
962.38	0.280
962.80	0.286
963.22	0.286
963.65	0.285
964.07	0.280
964.50	0.293
964.92	0.286
965.34	0.287
965.77	0.288
966.19	0.290
966.61	0.296
967.04	0.297
967.46	0.294
967.88	0.303
968.31	0.289
968.73	0.295
969.15	0.294
969.58	0.289
970.00	0.290
970.42	0.296
970.85	0.290
971.27	0.293
971.69	0.296
972.12	0.304
972.54	0.302
972.96	0.296
973.39	0.301
973.81	0.302
974.23	0.300
974.65	0.295
975.08	0.295
975.50	0.300
975.92	0.298
976.35	0.301
976.77	0.306
977.19	0.301
977.61	0.301
978.04	0.296
978.46	0.300
978.88	0.297
979.30	0.298
979.73	0.296
980.15	0.293
980.57	0.299
980.99	0.296
981.42	0.303
981.84	0.300
982.26	0.299
982.68	0.299
983.11	0.296
983.53	0.298
983.95	0.303
984.37	0.302
984.79	0.296
985.22	0.293
985.64	0.301
986.06	0.301
986.48	0.295
986.90	0.296
987.33	0.295
987.75	0.290
988.17	0.284
988.59	0.288
989.01	0.282
989.43	0.283
989.86	0.290
990.28	0.295
990.70	0.284
991.12	0.292
991.54	0.289
991.96	0.284
992.39	0.288
992.81	0.286
993.23	0.282
993.65	0.279
994.07	0.286
994.49	0.281
994.91	0.285
995.34	0.276
995.76	0.277
996.18	0.280
996.60	0.284
997.02	0.275
997.44	0.270
997.86	0.277
998.28	0.278
998.70	0.273
999.12	0.273
999.55	0.274
999.97	0.270
1000.39	0.265
1000.81	0.276
1001.23	0.271
1001.65	0.269
1002.07	0.272
1002.49	0.268
1002.91	0.264
1003.33	0.265
1003.75	0.260
1004.17	0.272
1004.59	0.260
1005.01	0.263
1005.43	0.270
1005.85	0.260
1006.28	0.256
1006.70	0.256
1007.12	0.258
1007.54	0.258
1007.96	0.251
1008.38	0.256
1008.80	0.262
1009.22	0.249
1009.64	0.246
1010.06	0.264
1010.48	0.251
1010.90	0.253
1011.32	0.247
1011.74	0.246
1012.16	0.250
1012.58	0.254
1013.00	0.253
1013.42	0.240
1013.84	0.237
1014.26	0.243
1014.67	0.252
1015.09	0.231
1015.51	0.238
1015.93	0.239
1016.35	0.238
1016.77	0.250
1017.19	0.236
1017.61	0.240
1018.03	0.236
1018.45	0.233
1018.87	0.231
1019.29	0.231
1019.71	0.233
1020.13	0.239
1020.55	0.239
1020.97	0.217
1021.38	0.228
1021.80	0.216
1022.22	0.219
1022.64	0.219
1023.06	0.223
1023.48	0.223
1023.90	0.217
1024.32	0.211
1024.74	0.217
1025.15	0.223
1025.57	0.211
1025.99	0.213
1026.41	0.226
1026.83	0.227
1027.25	0.213
1027.67	0.212
1028.08	0.213
1028.50	0.216
1028.92	0.212
1029.34	0.212
1029.76	0.226
1030.18	0.213
1030.60	0.212
1031.01	0.219
1031.43	0.217
1031.85	0.210
1032.27	0.213
1032.69	0.194
1033.10	0.225
1033.52	0.204
1033.94	0.208
1034.36	0.205
1034.78	0.195
1035.19	0.198
1035.61	0.206
1036.03	0.205
1036.45	0.192
1036.87	0.201
1037.28	0.199
1037.70	0.207
1038.12	0.196
1038.54	0.205
1038.95	0.198
1039.37	0.186
1039.79	0.203
1040.21	0.201
1040.62	0.215
1041.04	0.178
1041.46	0.188
1041.88	0.182
1042.29	0.213
1042.71	0.192
1043.13	0.199
1043.55	0.188
1043.96	0.189
1044.38	0.194
1044.80	0.185
1045.21	0.186
1045.63	0.174
1046.05	0.199
1046.47	0.193
1046.88	0.181
1047.30	0.189
1047.72	0.177
1048.13	0.194
1048.55	0.174
1048.97	0.190
1049.38	0.204
1049.80	0.170
1050.22	0.204
1050.63	0.196
1051.05	0.209
1051.47	0.184
1051.88	0.195
1052.30	0.196
1052.72	0.207
1053.13	0.162
1053.55	0.190
1053.97	0.165
1054.38	0.185
1054.80	0.184
1055.21	0.201
1055.63	0.174
1056.05	0.171
1056.46	0.222
1056.88	0.199
1057.29	0.192
1057.71	0.197
1058.13	0.221
1058.54	0.227
1058.96	0.195
1059.37	0.188
1059.79	0.217
1060.21	0.206
1060.62	0.210
1061.04	0.197
1061.45	0.198
1061.87	0.222
1062.28	0.172
1062.70	0.190
1063.12	0.207
1063.53	0.223
1063.95	0.195
1064.36	0.223
1064.78	0.255
1065.19	0.259
1065.61	0.229
1066.02	0.229
1066.44	0.236
1066.85	0.241
1067.27	0.286
1067.68	0.237
1068.10	0.172
1068.51	0.234
1068.93	0.279
1069.35	0.348
1069.76	0.266
1070.17	0.363
1070.59	0.269
1071.00	0.405
1071.42	0.161
1071.83	0.234
1072.25	0.325
1072.66	0.185
1073.08	0.385
1073.49	0.536
1073.91	0.401
1074.32	0.296
1074.74	0.339
1075.15	0.341
1075.57	0.286
1075.98	0.479
1076.40	0.211
1076.81	0.619
1077.22	0.223
1077.64	0.412
1078.05	1.165
1078.47	0.418
1078.88	0.394
1079.30	0.913
1079.71	0.900
1080.12	0.726
1080.54	1.700
1080.95	0.835
1081.37	0.972
1081.78	0.407
1082.19	0.462
1082.61	-0.000
1083.02	0.897
1083.44	1.747
1083.85	-0.000
1084.26	-0.000
1084.68	1.352
1085.09	-0.000
1085.50	-0.000
1085.92	-0.000
1086.33	-0.000
1086.74	-0.000
1087.16	-0.000
1087.57	-0.000
1087.98	0.435
1088.40	-0.000
1088.81	2.039
1089.22	-0.000
1089.64	-0.000
1090.05	0.836
1090.46	-0.000
1090.88	-0.000
1091.29	-0.000
1091.70	-0.000
1092.12	-0.000
1092.53	-0.000
1092.94	-0.000
1093.36	-0.000
1093.77	-0.000
1094.18	-0.000
1094.59	-0.000
1095.01	-0.000
1095.42	-0.000
1095.83	-0.000
1096.25	-0.000
1096.66	-0.000
1097.07	-0.000
1097.48	-0.000
1097.90	-0.000
1098.31	1.101
1098.72	-0.000
1099.13	-0.000
>>>>>End Processed Spectral Data<<<<<
