SpectraSuite Data File
++++++++++++++++++++++++++++++++++++
Date: Sun Apr 24 15:51:46 CEST 2016
User: spectrasuite
Dark Spectrum Present: Yes
Reference Spectrum Present: Yes
Number of Sampled Component Spectra: 1
Spectrometers: HR+C0708
Integration Time (usec): 1000 (HR+C0708)
Spectra Averaged: 10 (HR+C0708)
Boxcar Smoothing: 0 (HR+C0708)
Correct for Electrical Dark: No (HR+C0708)
Strobe/Lamp Enabled: No (HR+C0708)
Correct for Detector Non-linearity: No (HR+C0708)
Correct for Stray Light: No (HR+C0708)
Number of Pixels in Processed Spectrum: 2048
>>>>>Begin Processed Spectral Data<<<<<
188.76	-0.000
189.23	-0.000
189.70	-0.000
190.17	-0.000
190.64	-0.000
191.12	-0.000
191.59	-0.000
192.06	-0.000
192.53	-0.000
193.01	-0.000
193.48	-0.000
193.95	-0.000
194.42	-0.000
194.90	-0.000
195.37	-0.000
195.84	-0.000
196.31	-0.000
196.78	-0.000
197.26	-0.000
197.73	-0.000
198.20	-0.000
198.67	-0.000
199.14	-0.000
199.62	-0.000
200.09	-0.000
200.56	-0.000
201.03	-0.000
201.50	-0.000
201.97	1.129
202.45	-0.000
202.92	1.338
203.39	-0.000
203.86	-0.000
204.33	-0.000
204.80	-0.000
205.28	-0.000
205.75	-0.000
206.22	-0.000
206.69	-0.000
207.16	-0.000
207.63	-0.000
208.11	1.008
208.58	0.696
209.05	-0.000
209.52	1.633
209.99	-0.000
210.46	2.236
210.93	-0.000
211.41	1.766
211.88	1.133
212.35	-0.000
212.82	-0.000
213.29	2.020
213.76	1.018
214.23	-0.000
214.70	2.116
215.18	-0.000
215.65	-0.000
216.12	1.312
216.59	-0.000
217.06	-0.000
217.53	1.095
218.00	-0.000
218.47	0.862
218.94	1.008
219.41	-0.000
219.89	-0.000
220.36	2.041
220.83	-0.000
221.30	-0.000
221.77	2.014
222.24	-0.000
222.71	-0.000
223.18	-0.000
223.65	-0.000
224.12	-0.000
224.59	-0.000
225.06	-0.000
225.54	1.653
226.01	1.534
226.48	-0.000
226.95	-0.000
227.42	1.684
227.89	-0.000
228.36	2.160
228.83	2.075
229.30	-0.000
229.77	-0.000
230.24	1.874
230.71	2.294
231.18	-0.000
231.65	2.417
232.12	2.431
232.59	3.341
233.06	-0.000
233.53	2.547
234.00	2.189
234.47	3.093
234.94	-0.000
235.41	-0.000
235.88	2.681
236.35	-0.000
236.82	-0.000
237.29	-0.000
237.76	-0.000
238.23	2.682
238.70	3.285
239.17	2.725
239.64	-0.000
240.11	-0.000
240.58	-0.000
241.05	3.171
241.52	4.198
241.99	-0.000
242.46	2.808
242.93	-0.000
243.40	3.804
243.87	2.794
244.34	2.563
244.81	-0.000
245.28	-0.000
245.75	-0.000
246.22	-0.000
246.69	-0.000
247.16	2.678
247.63	2.812
248.10	3.313
248.57	4.000
249.04	-0.000
249.51	-0.000
249.98	-0.000
250.45	3.759
250.92	2.800
251.39	-0.000
251.85	-0.000
252.32	-0.000
252.79	3.429
253.26	-0.000
253.73	-0.000
254.20	3.160
254.67	2.780
255.14	-0.000
255.61	-0.000
256.08	-0.000
256.55	-0.000
257.02	3.291
257.49	-0.000
257.95	2.900
258.42	3.393
258.89	3.164
259.36	3.667
259.83	3.236
260.30	-0.000
260.77	3.343
261.24	2.859
261.71	3.425
262.17	3.279
262.64	2.889
263.11	3.173
263.58	-0.000
264.05	3.130
264.52	2.899
264.99	2.861
265.46	4.287
265.92	3.311
266.39	2.814
266.86	3.709
267.33	3.011
267.80	2.852
268.27	3.685
268.74	3.074
269.20	2.930
269.67	2.854
270.14	2.735
270.61	2.803
271.08	2.741
271.55	2.656
272.01	3.042
272.48	2.663
272.95	2.622
273.42	2.653
273.89	2.679
274.36	2.581
274.82	2.489
275.29	2.522
275.76	2.510
276.23	2.502
276.70	2.541
277.16	2.464
277.63	2.455
278.10	2.373
278.57	2.382
279.04	2.451
279.50	2.486
279.97	2.383
280.44	2.320
280.91	2.340
281.38	2.341
281.84	2.371
282.31	2.387
282.78	2.455
283.25	2.281
283.72	2.269
284.18	2.229
284.65	2.277
285.12	2.229
285.59	2.227
286.05	2.258
286.52	2.283
286.99	2.240
287.46	2.238
287.92	2.167
288.39	2.189
288.86	2.244
289.33	2.176
289.79	2.193
290.26	2.161
290.73	2.136
291.20	2.158
291.66	2.173
292.13	2.137
292.60	2.091
293.07	2.054
293.53	2.008
294.00	2.118
294.47	2.121
294.93	2.081
295.40	2.096
295.87	2.053
296.34	2.038
296.80	2.001
297.27	2.061
297.74	1.980
298.20	2.021
298.67	2.001
299.14	2.029
299.60	1.979
300.07	1.958
300.54	1.944
301.01	1.948
301.47	1.917
301.94	1.924
302.41	1.952
302.87	1.964
303.34	1.983
303.81	1.904
304.27	1.924
304.74	1.894
305.21	1.856
305.67	1.891
306.14	1.864
306.61	1.879
307.07	1.843
307.54	1.868
308.01	1.853
308.47	1.853
308.94	1.860
309.40	1.827
309.87	1.829
310.34	1.826
310.80	1.813
311.27	1.806
311.74	1.795
312.20	1.807
312.67	1.798
313.13	1.756
313.60	1.803
314.07	1.798
314.53	1.750
315.00	1.749
315.47	1.774
315.93	1.754
316.40	1.741
316.86	1.735
317.33	1.720
317.80	1.707
318.26	1.720
318.73	1.735
319.19	1.689
319.66	1.683
320.13	1.681
320.59	1.700
321.06	1.677
321.52	1.694
321.99	1.677
322.45	1.655
322.92	1.655
323.39	1.649
323.85	1.646
324.32	1.640
324.78	1.616
325.25	1.655
325.71	1.622
326.18	1.627
326.64	1.646
327.11	1.595
327.58	1.594
328.04	1.581
328.51	1.608
328.97	1.591
329.44	1.572
329.90	1.555
330.37	1.549
330.83	1.532
331.30	1.554
331.76	1.530
332.23	1.502
332.69	1.515
333.16	1.494
333.62	1.489
334.09	1.469
334.56	1.446
335.02	1.447
335.49	1.435
335.95	1.420
336.42	1.407
336.88	1.394
337.35	1.380
337.81	1.382
338.28	1.350
338.74	1.346
339.20	1.332
339.67	1.316
340.13	1.301
340.60	1.281
341.06	1.264
341.53	1.241
341.99	1.233
342.46	1.211
342.92	1.197
343.39	1.188
343.85	1.164
344.32	1.153
344.78	1.143
345.25	1.126
345.71	1.107
346.17	1.096
346.64	1.078
347.10	1.052
347.57	1.027
348.03	1.016
348.50	0.995
348.96	0.979
349.43	0.957
349.89	0.954
350.35	0.928
350.82	0.906
351.28	0.905
351.75	0.891
352.21	0.882
352.67	0.855
353.14	0.848
353.60	0.837
354.07	0.812
354.53	0.796
355.00	0.790
355.46	0.784
355.92	0.765
356.39	0.760
356.85	0.749
357.31	0.741
357.78	0.730
358.24	0.723
358.71	0.709
359.17	0.705
359.63	0.694
360.10	0.689
360.56	0.682
361.03	0.678
361.49	0.676
361.95	0.669
362.42	0.666
362.88	0.656
363.34	0.652
363.81	0.645
364.27	0.647
364.73	0.643
365.20	0.642
365.66	0.634
366.12	0.632
366.59	0.629
367.05	0.625
367.51	0.623
367.98	0.617
368.44	0.616
368.90	0.617
369.37	0.610
369.83	0.613
370.29	0.608
370.76	0.606
371.22	0.603
371.68	0.601
372.15	0.596
372.61	0.592
373.07	0.597
373.54	0.596
374.00	0.587
374.46	0.587
374.92	0.585
375.39	0.587
375.85	0.584
376.31	0.576
376.78	0.576
377.24	0.578
377.70	0.575
378.16	0.570
378.63	0.572
379.09	0.571
379.55	0.567
380.01	0.567
380.48	0.563
380.94	0.564
381.40	0.564
381.87	0.561
382.33	0.555
382.79	0.554
383.25	0.554
383.72	0.554
384.18	0.550
384.64	0.548
385.10	0.547
385.56	0.549
386.03	0.543
386.49	0.539
386.95	0.540
387.41	0.537
387.88	0.538
388.34	0.532
388.80	0.533
389.26	0.530
389.72	0.530
390.19	0.534
390.65	0.526
391.11	0.525
391.57	0.525
392.04	0.523
392.50	0.521
392.96	0.518
393.42	0.517
393.88	0.520
394.34	0.516
394.81	0.512
395.27	0.513
395.73	0.513
396.19	0.508
396.65	0.510
397.12	0.506
397.58	0.509
398.04	0.501
398.50	0.503
398.96	0.501
399.42	0.504
399.89	0.498
400.35	0.497
400.81	0.494
401.27	0.495
401.73	0.495
402.19	0.492
402.65	0.486
403.12	0.486
403.58	0.489
404.04	0.488
404.50	0.487
404.96	0.482
405.42	0.483
405.88	0.483
406.34	0.482
406.81	0.482
407.27	0.477
407.73	0.477
408.19	0.474
408.65	0.472
409.11	0.471
409.57	0.475
410.03	0.468
410.49	0.471
410.96	0.469
411.42	0.463
411.88	0.465
412.34	0.463
412.80	0.466
413.26	0.461
413.72	0.459
414.18	0.457
414.64	0.454
415.10	0.460
415.56	0.456
416.02	0.459
416.48	0.455
416.95	0.454
417.41	0.453
417.87	0.447
418.33	0.449
418.79	0.446
419.25	0.444
419.71	0.445
420.17	0.446
420.63	0.442
421.09	0.439
421.55	0.440
422.01	0.441
422.47	0.440
422.93	0.438
423.39	0.437
423.85	0.439
424.31	0.436
424.77	0.432
425.23	0.435
425.69	0.434
426.15	0.431
426.61	0.430
427.07	0.427
427.53	0.429
427.99	0.425
428.45	0.427
428.91	0.424
429.37	0.423
429.83	0.419
430.29	0.421
430.75	0.420
431.21	0.422
431.67	0.421
432.13	0.420
432.59	0.416
433.05	0.416
433.51	0.414
433.97	0.411
434.43	0.412
434.89	0.413
435.35	0.412
435.81	0.409
436.27	0.407
436.73	0.411
437.19	0.407
437.65	0.406
438.11	0.404
438.57	0.409
439.03	0.404
439.48	0.399
439.94	0.403
440.40	0.405
440.86	0.404
441.32	0.400
441.78	0.404
442.24	0.395
442.70	0.397
443.16	0.394
443.62	0.392
444.08	0.389
444.54	0.390
444.99	0.394
445.45	0.387
445.91	0.388
446.37	0.388
446.83	0.390
447.29	0.386
447.75	0.385
448.21	0.393
448.67	0.382
449.12	0.384
449.58	0.384
450.04	0.379
450.50	0.381
450.96	0.380
451.42	0.379
451.88	0.378
452.34	0.374
452.79	0.377
453.25	0.380
453.71	0.370
454.17	0.372
454.63	0.376
455.09	0.372
455.55	0.371
456.00	0.365
456.46	0.368
456.92	0.368
457.38	0.365
457.84	0.367
458.30	0.363
458.75	0.367
459.21	0.362
459.67	0.365
460.13	0.366
460.59	0.360
461.04	0.362
461.50	0.363
461.96	0.360
462.42	0.358
462.88	0.357
463.33	0.358
463.79	0.356
464.25	0.355
464.71	0.352
465.17	0.353
465.62	0.355
466.08	0.354
466.54	0.354
467.00	0.354
467.46	0.352
467.91	0.350
468.37	0.350
468.83	0.351
469.29	0.350
469.74	0.347
470.20	0.348
470.66	0.350
471.12	0.342
471.57	0.348
472.03	0.343
472.49	0.342
472.95	0.342
473.40	0.343
473.86	0.339
474.32	0.336
474.78	0.343
475.23	0.339
475.69	0.337
476.15	0.337
476.60	0.339
477.06	0.334
477.52	0.334
477.98	0.334
478.43	0.333
478.89	0.331
479.35	0.331
479.80	0.333
480.26	0.331
480.72	0.330
481.18	0.330
481.63	0.329
482.09	0.327
482.55	0.328
483.00	0.326
483.46	0.326
483.92	0.325
484.37	0.323
484.83	0.325
485.29	0.321
485.74	0.322
486.20	0.323
486.66	0.320
487.11	0.322
487.57	0.320
488.03	0.320
488.48	0.319
488.94	0.317
489.40	0.316
489.85	0.318
490.31	0.321
490.77	0.316
491.22	0.317
491.68	0.317
492.13	0.315
492.59	0.314
493.05	0.313
493.50	0.313
493.96	0.310
494.42	0.311
494.87	0.309
495.33	0.308
495.78	0.311
496.24	0.311
496.70	0.308
497.15	0.309
497.61	0.309
498.06	0.307
498.52	0.305
498.98	0.305
499.43	0.305
499.89	0.305
500.34	0.305
500.80	0.303
501.25	0.303
501.71	0.302
502.17	0.301
502.62	0.302
503.08	0.299
503.53	0.298
503.99	0.298
504.44	0.301
504.90	0.299
505.36	0.293
505.81	0.295
506.27	0.295
506.72	0.297
507.18	0.298
507.63	0.294
508.09	0.296
508.54	0.292
509.00	0.292
509.45	0.294
509.91	0.292
510.36	0.293
510.82	0.290
511.27	0.290
511.73	0.289
512.19	0.288
512.64	0.287
513.10	0.291
513.55	0.288
514.01	0.286
514.46	0.284
514.92	0.286
515.37	0.288
515.83	0.285
516.28	0.285
516.73	0.284
517.19	0.283
517.64	0.282
518.10	0.284
518.55	0.281
519.01	0.280
519.46	0.282
519.92	0.282
520.37	0.274
520.83	0.278
521.28	0.277
521.74	0.279
522.19	0.278
522.65	0.275
523.10	0.278
523.55	0.276
524.01	0.277
524.46	0.274
524.92	0.275
525.37	0.275
525.83	0.274
526.28	0.274
526.73	0.273
527.19	0.274
527.64	0.273
528.10	0.273
528.55	0.271
529.01	0.273
529.46	0.269
529.91	0.272
530.37	0.268
530.82	0.269
531.28	0.268
531.73	0.266
532.18	0.267
532.64	0.268
533.09	0.265
533.54	0.266
534.00	0.265
534.45	0.267
534.91	0.266
535.36	0.267
535.81	0.265
536.27	0.263
536.72	0.265
537.17	0.262
537.63	0.262
538.08	0.260
538.54	0.262
538.99	0.260
539.44	0.263
539.90	0.259
540.35	0.258
540.80	0.259
541.26	0.261
541.71	0.257
542.16	0.258
542.62	0.257
543.07	0.257
543.52	0.257
543.98	0.257
544.43	0.256
544.88	0.255
545.34	0.254
545.79	0.253
546.24	0.253
546.69	0.253
547.15	0.251
547.60	0.254
548.05	0.253
548.51	0.250
548.96	0.250
549.41	0.254
549.86	0.250
550.32	0.250
550.77	0.251
551.22	0.250
551.68	0.247
552.13	0.247
552.58	0.247
553.03	0.247
553.49	0.247
553.94	0.246
554.39	0.246
554.84	0.247
555.30	0.247
555.75	0.247
556.20	0.245
556.65	0.244
557.11	0.245
557.56	0.243
558.01	0.244
558.46	0.244
558.92	0.242
559.37	0.241
559.82	0.239
560.27	0.240
560.72	0.241
561.18	0.243
561.63	0.241
562.08	0.238
562.53	0.240
562.99	0.240
563.44	0.240
563.89	0.238
564.34	0.237
564.79	0.238
565.25	0.237
565.70	0.235
566.15	0.234
566.60	0.235
567.05	0.236
567.50	0.236
567.96	0.234
568.41	0.235
568.86	0.232
569.31	0.232
569.76	0.233
570.21	0.232
570.67	0.231
571.12	0.232
571.57	0.231
572.02	0.229
572.47	0.230
572.92	0.230
573.37	0.229
573.83	0.228
574.28	0.230
574.73	0.226
575.18	0.230
575.63	0.230
576.08	0.226
576.53	0.226
576.98	0.227
577.44	0.223
577.89	0.226
578.34	0.224
578.79	0.225
579.24	0.224
579.69	0.225
580.14	0.222
580.59	0.223
581.04	0.221
581.49	0.220
581.95	0.223
582.40	0.222
582.85	0.221
583.30	0.221
583.75	0.219
584.20	0.221
584.65	0.220
585.10	0.219
585.55	0.219
586.00	0.219
586.45	0.219
586.90	0.220
587.35	0.219
587.80	0.217
588.25	0.217
588.71	0.217
589.16	0.216
589.61	0.216
590.06	0.216
590.51	0.216
590.96	0.215
591.41	0.216
591.86	0.215
592.31	0.215
592.76	0.216
593.21	0.215
593.66	0.216
594.11	0.215
594.56	0.212
595.01	0.213
595.46	0.210
595.91	0.214
596.36	0.213
596.81	0.214
597.26	0.211
597.71	0.212
598.16	0.212
598.61	0.211
599.06	0.209
599.51	0.212
599.96	0.213
600.41	0.212
600.86	0.210
601.31	0.210
601.76	0.209
602.21	0.211
602.65	0.210
603.10	0.208
603.55	0.209
604.00	0.207
604.45	0.209
604.90	0.206
605.35	0.206
605.80	0.209
606.25	0.209
606.70	0.206
607.15	0.206
607.60	0.205
608.05	0.204
608.50	0.206
608.95	0.203
609.39	0.205
609.84	0.204
610.29	0.203
610.74	0.203
611.19	0.201
611.64	0.202
612.09	0.203
612.54	0.202
612.99	0.202
613.44	0.202
613.88	0.203
614.33	0.200
614.78	0.200
615.23	0.199
615.68	0.200
616.13	0.200
616.58	0.199
617.03	0.198
617.47	0.199
617.92	0.199
618.37	0.198
618.82	0.199
619.27	0.197
619.72	0.197
620.17	0.195
620.61	0.195
621.06	0.196
621.51	0.196
621.96	0.195
622.41	0.196
622.86	0.195
623.30	0.195
623.75	0.194
624.20	0.194
624.65	0.194
625.10	0.194
625.54	0.195
625.99	0.194
626.44	0.191
626.89	0.192
627.34	0.194
627.78	0.192
628.23	0.192
628.68	0.192
629.13	0.191
629.58	0.190
630.02	0.192
630.47	0.191
630.92	0.190
631.37	0.189
631.81	0.189
632.26	0.189
632.71	0.189
633.16	0.189
633.61	0.188
634.05	0.188
634.50	0.187
634.95	0.187
635.40	0.189
635.84	0.190
636.29	0.187
636.74	0.188
637.18	0.189
637.63	0.188
638.08	0.185
638.53	0.186
638.97	0.187
639.42	0.187
639.87	0.187
640.32	0.184
640.76	0.185
641.21	0.186
641.66	0.187
642.10	0.184
642.55	0.184
643.00	0.186
643.44	0.186
643.89	0.187
644.34	0.185
644.79	0.184
645.23	0.185
645.68	0.184
646.13	0.184
646.57	0.184
647.02	0.182
647.47	0.184
647.91	0.182
648.36	0.182
648.81	0.182
649.25	0.181
649.70	0.181
650.15	0.181
650.59	0.181
651.04	0.180
651.48	0.184
651.93	0.181
652.38	0.179
652.82	0.181
653.27	0.182
653.72	0.181
654.16	0.180
654.61	0.180
655.06	0.179
655.50	0.177
655.95	0.177
656.39	0.173
656.84	0.176
657.29	0.181
657.73	0.177
658.18	0.178
658.62	0.179
659.07	0.179
659.52	0.178
659.96	0.178
660.41	0.179
660.85	0.175
661.30	0.177
661.74	0.179
662.19	0.176
662.64	0.176
663.08	0.174
663.53	0.175
663.97	0.175
664.42	0.174
664.86	0.176
665.31	0.175
665.75	0.174
666.20	0.175
666.65	0.175
667.09	0.173
667.54	0.174
667.98	0.173
668.43	0.172
668.87	0.173
669.32	0.173
669.76	0.172
670.21	0.173
670.65	0.171
671.10	0.172
671.54	0.170
671.99	0.170
672.43	0.169
672.88	0.171
673.32	0.171
673.77	0.168
674.21	0.167
674.66	0.170
675.10	0.168
675.55	0.166
675.99	0.168
676.44	0.168
676.88	0.170
677.33	0.168
677.77	0.168
678.22	0.168
678.66	0.166
679.11	0.166
679.55	0.168
679.99	0.165
680.44	0.167
680.88	0.167
681.33	0.164
681.77	0.164
682.22	0.164
682.66	0.165
683.11	0.163
683.55	0.164
683.99	0.163
684.44	0.162
684.88	0.163
685.33	0.163
685.77	0.163
686.21	0.163
686.66	0.163
687.10	0.163
687.55	0.161
687.99	0.164
688.44	0.162
688.88	0.160
689.32	0.161
689.77	0.160
690.21	0.159
690.65	0.159
691.10	0.160
691.54	0.160
691.99	0.161
692.43	0.158
692.87	0.159
693.32	0.160
693.76	0.159
694.20	0.160
694.65	0.159
695.09	0.159
695.53	0.158
695.98	0.159
696.42	0.159
696.86	0.159
697.31	0.157
697.75	0.157
698.19	0.157
698.64	0.156
699.08	0.157
699.52	0.156
699.97	0.156
700.41	0.157
700.85	0.159
701.30	0.155
701.74	0.156
702.18	0.155
702.63	0.154
703.07	0.157
703.51	0.158
703.96	0.155
704.40	0.155
704.84	0.157
705.28	0.155
705.73	0.155
706.17	0.156
706.61	0.153
707.06	0.154
707.50	0.154
707.94	0.153
708.38	0.153
708.83	0.157
709.27	0.153
709.71	0.153
710.15	0.154
710.60	0.152
711.04	0.153
711.48	0.154
711.92	0.153
712.37	0.154
712.81	0.154
713.25	0.153
713.69	0.151
714.13	0.152
714.58	0.155
715.02	0.153
715.46	0.152
715.90	0.150
716.35	0.150
716.79	0.154
717.23	0.154
717.67	0.153
718.11	0.155
718.56	0.150
719.00	0.151
719.44	0.151
719.88	0.152
720.32	0.153
720.76	0.153
721.21	0.149
721.65	0.149
722.09	0.149
722.53	0.150
722.97	0.151
723.41	0.151
723.86	0.153
724.30	0.150
724.74	0.153
725.18	0.150
725.62	0.150
726.06	0.150
726.50	0.149
726.95	0.151
727.39	0.151
727.83	0.149
728.27	0.148
728.71	0.149
729.15	0.152
729.59	0.153
730.03	0.151
730.48	0.151
730.92	0.149
731.36	0.151
731.80	0.150
732.24	0.154
732.68	0.150
733.12	0.148
733.56	0.150
734.00	0.150
734.44	0.152
734.89	0.149
735.33	0.150
735.77	0.152
736.21	0.148
736.65	0.149
737.09	0.153
737.53	0.150
737.97	0.149
738.41	0.152
738.85	0.154
739.29	0.149
739.73	0.151
740.17	0.151
740.61	0.148
741.05	0.153
741.49	0.150
741.93	0.148
742.37	0.148
742.81	0.151
743.26	0.151
743.70	0.150
744.14	0.148
744.58	0.148
745.02	0.149
745.46	0.150
745.90	0.146
746.34	0.148
746.78	0.147
747.22	0.148
747.66	0.147
748.10	0.148
748.54	0.149
748.98	0.145
749.42	0.145
749.86	0.146
750.29	0.149
750.73	0.146
751.17	0.144
751.61	0.145
752.05	0.147
752.49	0.146
752.93	0.144
753.37	0.144
753.81	0.144
754.25	0.145
754.69	0.145
755.13	0.144
755.57	0.146
756.01	0.146
756.45	0.144
756.89	0.146
757.33	0.146
757.77	0.144
758.21	0.145
758.64	0.144
759.08	0.142
759.52	0.145
759.96	0.146
760.40	0.142
760.84	0.143
761.28	0.142
761.72	0.144
762.16	0.146
762.60	0.144
763.03	0.142
763.47	0.142
763.91	0.141
764.35	0.142
764.79	0.141
765.23	0.140
765.67	0.141
766.11	0.137
766.54	0.139
766.98	0.140
767.42	0.142
767.86	0.140
768.30	0.140
768.74	0.143
769.17	0.143
769.61	0.141
770.05	0.141
770.49	0.141
770.93	0.142
771.37	0.137
771.80	0.139
772.24	0.140
772.68	0.139
773.12	0.137
773.56	0.138
774.00	0.140
774.43	0.139
774.87	0.137
775.31	0.139
775.75	0.135
776.19	0.139
776.62	0.137
777.06	0.136
777.50	0.138
777.94	0.137
778.37	0.136
778.81	0.139
779.25	0.138
779.69	0.140
780.13	0.139
780.56	0.135
781.00	0.137
781.44	0.137
781.88	0.139
782.31	0.138
782.75	0.134
783.19	0.139
783.63	0.133
784.06	0.133
784.50	0.138
784.94	0.137
785.37	0.137
785.81	0.139
786.25	0.137
786.69	0.134
787.12	0.136
787.56	0.136
788.00	0.137
788.43	0.137
788.87	0.137
789.31	0.135
789.75	0.137
790.18	0.133
790.62	0.136
791.06	0.134
791.49	0.134
791.93	0.134
792.37	0.134
792.80	0.134
793.24	0.132
793.68	0.132
794.11	0.133
794.55	0.137
794.99	0.136
795.42	0.134
795.86	0.137
796.30	0.133
796.73	0.133
797.17	0.135
797.61	0.133
798.04	0.128
798.48	0.133
798.91	0.135
799.35	0.132
799.79	0.136
800.22	0.134
800.66	0.131
801.10	0.131
801.53	0.133
801.97	0.137
802.40	0.133
802.84	0.133
803.28	0.129
803.71	0.135
804.15	0.129
804.58	0.133
805.02	0.133
805.46	0.129
805.89	0.131
806.33	0.132
806.76	0.130
807.20	0.134
807.63	0.128
808.07	0.133
808.51	0.130
808.94	0.132
809.38	0.131
809.81	0.128
810.25	0.132
810.68	0.134
811.12	0.135
811.55	0.134
811.99	0.129
812.42	0.132
812.86	0.129
813.29	0.130
813.73	0.130
814.17	0.130
814.60	0.132
815.04	0.130
815.47	0.127
815.91	0.127
816.34	0.129
816.78	0.130
817.21	0.133
817.65	0.131
818.08	0.128
818.52	0.131
818.95	0.130
819.39	0.128
819.82	0.130
820.25	0.133
820.69	0.125
821.12	0.131
821.56	0.127
821.99	0.126
822.43	0.126
822.86	0.136
823.30	0.132
823.73	0.125
824.17	0.129
824.60	0.132
825.04	0.127
825.47	0.131
825.90	0.131
826.34	0.129
826.77	0.126
827.21	0.134
827.64	0.131
828.08	0.130
828.51	0.128
828.94	0.131
829.38	0.128
829.81	0.133
830.25	0.133
830.68	0.132
831.11	0.132
831.55	0.131
831.98	0.133
832.42	0.133
832.85	0.134
833.28	0.136
833.72	0.139
834.15	0.134
834.58	0.128
835.02	0.134
835.45	0.136
835.88	0.135
836.32	0.136
836.75	0.134
837.19	0.133
837.62	0.135
838.05	0.132
838.49	0.134
838.92	0.134
839.35	0.131
839.79	0.134
840.22	0.137
840.65	0.132
841.09	0.132
841.52	0.133
841.95	0.135
842.39	0.135
842.82	0.134
843.25	0.136
843.68	0.134
844.12	0.133
844.55	0.131
844.98	0.131
845.42	0.128
845.85	0.130
846.28	0.129
846.71	0.127
847.15	0.137
847.58	0.132
848.01	0.136
848.45	0.133
848.88	0.136
849.31	0.133
849.74	0.133
850.18	0.130
850.61	0.132
851.04	0.136
851.47	0.138
851.91	0.135
852.34	0.139
852.77	0.139
853.20	0.132
853.64	0.132
854.07	0.137
854.50	0.132
854.93	0.138
855.36	0.132
855.80	0.132
856.23	0.132
856.66	0.136
857.09	0.131
857.52	0.134
857.96	0.128
858.39	0.135
858.82	0.130
859.25	0.136
859.68	0.136
860.12	0.130
860.55	0.126
860.98	0.133
861.41	0.131
861.84	0.134
862.27	0.133
862.71	0.135
863.14	0.135
863.57	0.133
864.00	0.129
864.43	0.136
864.86	0.134
865.30	0.140
865.73	0.135
866.16	0.129
866.59	0.135
867.02	0.131
867.45	0.135
867.88	0.136
868.31	0.138
868.75	0.136
869.18	0.135
869.61	0.135
870.04	0.132
870.47	0.138
870.90	0.135
871.33	0.133
871.76	0.136
872.19	0.140
872.62	0.133
873.06	0.134
873.49	0.138
873.92	0.141
874.35	0.135
874.78	0.137
875.21	0.139
875.64	0.130
876.07	0.141
876.50	0.133
876.93	0.141
877.36	0.136
877.79	0.137
878.22	0.133
878.65	0.134
879.08	0.137
879.51	0.141
879.94	0.137
880.37	0.138
880.80	0.140
881.23	0.131
881.67	0.144
882.10	0.140
882.53	0.135
882.96	0.139
883.39	0.136
883.82	0.138
884.25	0.133
884.68	0.137
885.11	0.133
885.54	0.141
885.97	0.144
886.39	0.135
886.82	0.142
887.25	0.139
887.68	0.138
888.11	0.136
888.54	0.135
888.97	0.140
889.40	0.139
889.83	0.138
890.26	0.136
890.69	0.136
891.12	0.135
891.55	0.139
891.98	0.138
892.41	0.130
892.84	0.141
893.27	0.139
893.70	0.139
894.13	0.142
894.56	0.138
894.98	0.141
895.41	0.142
895.84	0.138
896.27	0.141
896.70	0.139
897.13	0.138
897.56	0.139
897.99	0.139
898.42	0.134
898.85	0.140
899.27	0.140
899.70	0.143
900.13	0.139
900.56	0.139
900.99	0.139
901.42	0.140
901.85	0.139
902.28	0.140
902.70	0.141
903.13	0.143
903.56	0.142
903.99	0.137
904.42	0.141
904.85	0.138
905.27	0.142
905.70	0.138
906.13	0.138
906.56	0.137
906.99	0.143
907.42	0.141
907.84	0.135
908.27	0.139
908.70	0.143
909.13	0.139
909.56	0.136
909.98	0.140
910.41	0.139
910.84	0.141
911.27	0.142
911.70	0.141
912.12	0.136
912.55	0.139
912.98	0.140
913.41	0.140
913.84	0.141
914.26	0.138
914.69	0.142
915.12	0.141
915.55	0.138
915.97	0.138
916.40	0.141
916.83	0.137
917.26	0.142
917.68	0.140
918.11	0.137
918.54	0.137
918.97	0.136
919.39	0.140
919.82	0.138
920.25	0.135
920.67	0.139
921.10	0.142
921.53	0.142
921.96	0.143
922.38	0.140
922.81	0.142
923.24	0.144
923.66	0.138
924.09	0.144
924.52	0.144
924.94	0.146
925.37	0.148
925.80	0.147
926.22	0.141
926.65	0.143
927.08	0.144
927.50	0.148
927.93	0.149
928.36	0.144
928.78	0.149
929.21	0.145
929.64	0.149
930.06	0.157
930.49	0.151
930.92	0.151
931.34	0.156
931.77	0.156
932.20	0.156
932.62	0.155
933.05	0.154
933.47	0.160
933.90	0.157
934.33	0.155
934.75	0.160
935.18	0.161
935.61	0.164
936.03	0.159
936.46	0.164
936.88	0.168
937.31	0.167
937.73	0.165
938.16	0.165
938.59	0.170
939.01	0.175
939.44	0.172
939.86	0.170
940.29	0.178
940.71	0.183
941.14	0.187
941.57	0.182
941.99	0.186
942.42	0.182
942.84	0.192
943.27	0.198
943.69	0.193
944.12	0.195
944.54	0.203
944.97	0.198
945.39	0.198
945.82	0.201
946.24	0.206
946.67	0.193
947.09	0.208
947.52	0.208
947.94	0.206
948.37	0.214
948.79	0.211
949.22	0.221
949.64	0.208
950.07	0.222
950.49	0.221
950.92	0.228
951.34	0.222
951.77	0.219
952.19	0.231
952.62	0.233
953.04	0.241
953.47	0.240
953.89	0.238
954.32	0.245
954.74	0.247
955.17	0.246
955.59	0.254
956.01	0.254
956.44	0.259
956.86	0.264
957.29	0.260
957.71	0.272
958.14	0.266
958.56	0.273
958.98	0.266
959.41	0.274
959.83	0.270
960.26	0.271
960.68	0.282
961.10	0.277
961.53	0.279
961.95	0.287
962.38	0.285
962.80	0.281
963.22	0.283
963.65	0.285
964.07	0.280
964.50	0.285
964.92	0.287
965.34	0.291
965.77	0.288
966.19	0.292
966.61	0.291
967.04	0.297
967.46	0.297
967.88	0.295
968.31	0.291
968.73	0.295
969.15	0.293
969.58	0.294
970.00	0.290
970.42	0.294
970.85	0.288
971.27	0.287
971.69	0.290
972.12	0.299
972.54	0.299
972.96	0.295
973.39	0.301
973.81	0.301
974.23	0.298
974.65	0.293
975.08	0.299
975.50	0.301
975.92	0.296
976.35	0.301
976.77	0.300
977.19	0.298
977.61	0.294
978.04	0.293
978.46	0.300
978.88	0.297
979.30	0.302
979.73	0.297
980.15	0.296
980.57	0.296
980.99	0.298
981.42	0.298
981.84	0.295
982.26	0.299
982.68	0.302
983.11	0.298
983.53	0.291
983.95	0.297
984.37	0.295
984.79	0.294
985.22	0.300
985.64	0.296
986.06	0.295
986.48	0.293
986.90	0.289
987.33	0.293
987.75	0.291
988.17	0.285
988.59	0.281
989.01	0.287
989.43	0.285
989.86	0.286
990.28	0.287
990.70	0.287
991.12	0.290
991.54	0.288
991.96	0.285
992.39	0.287
992.81	0.279
993.23	0.282
993.65	0.283
994.07	0.280
994.49	0.280
994.91	0.289
995.34	0.278
995.76	0.281
996.18	0.285
996.60	0.282
997.02	0.281
997.44	0.272
997.86	0.276
998.28	0.276
998.70	0.277
999.12	0.273
999.55	0.268
999.97	0.272
1000.39	0.276
1000.81	0.279
1001.23	0.271
1001.65	0.270
1002.07	0.274
1002.49	0.267
1002.91	0.262
1003.33	0.264
1003.75	0.261
1004.17	0.266
1004.59	0.254
1005.01	0.262
1005.43	0.267
1005.85	0.262
1006.28	0.261
1006.70	0.251
1007.12	0.253
1007.54	0.255
1007.96	0.252
1008.38	0.257
1008.80	0.253
1009.22	0.252
1009.64	0.257
1010.06	0.256
1010.48	0.256
1010.90	0.251
1011.32	0.247
1011.74	0.246
1012.16	0.249
1012.58	0.242
1013.00	0.245
1013.42	0.242
1013.84	0.240
1014.26	0.235
1014.67	0.249
1015.09	0.236
1015.51	0.243
1015.93	0.244
1016.35	0.232
1016.77	0.236
1017.19	0.239
1017.61	0.240
1018.03	0.243
1018.45	0.234
1018.87	0.233
1019.29	0.230
1019.71	0.236
1020.13	0.234
1020.55	0.231
1020.97	0.225
1021.38	0.230
1021.80	0.221
1022.22	0.230
1022.64	0.219
1023.06	0.220
1023.48	0.214
1023.90	0.209
1024.32	0.206
1024.74	0.214
1025.15	0.208
1025.57	0.220
1025.99	0.221
1026.41	0.211
1026.83	0.219
1027.25	0.214
1027.67	0.218
1028.08	0.215
1028.50	0.228
1028.92	0.215
1029.34	0.224
1029.76	0.225
1030.18	0.209
1030.60	0.225
1031.01	0.207
1031.43	0.206
1031.85	0.216
1032.27	0.218
1032.69	0.195
1033.10	0.222
1033.52	0.205
1033.94	0.204
1034.36	0.192
1034.78	0.197
1035.19	0.208
1035.61	0.214
1036.03	0.216
1036.45	0.192
1036.87	0.205
1037.28	0.203
1037.70	0.190
1038.12	0.186
1038.54	0.186
1038.95	0.194
1039.37	0.197
1039.79	0.189
1040.21	0.203
1040.62	0.207
1041.04	0.194
1041.46	0.184
1041.88	0.194
1042.29	0.199
1042.71	0.197
1043.13	0.201
1043.55	0.194
1043.96	0.186
1044.38	0.197
1044.80	0.199
1045.21	0.184
1045.63	0.185
1046.05	0.195
1046.47	0.189
1046.88	0.176
1047.30	0.185
1047.72	0.171
1048.13	0.195
1048.55	0.170
1048.97	0.162
1049.38	0.192
1049.80	0.176
1050.22	0.206
1050.63	0.184
1051.05	0.194
1051.47	0.191
1051.88	0.187
1052.30	0.190
1052.72	0.194
1053.13	0.191
1053.55	0.181
1053.97	0.169
1054.38	0.188
1054.80	0.196
1055.21	0.204
1055.63	0.181
1056.05	0.178
1056.46	0.161
1056.88	0.192
1057.29	0.207
1057.71	0.169
1058.13	0.197
1058.54	0.231
1058.96	0.179
1059.37	0.229
1059.79	0.180
1060.21	0.179
1060.62	0.214
1061.04	0.200
1061.45	0.212
1061.87	0.214
1062.28	0.185
1062.70	0.173
1063.12	0.178
1063.53	0.217
1063.95	0.204
1064.36	0.233
1064.78	0.303
1065.19	0.297
1065.61	0.215
1066.02	0.243
1066.44	0.223
1066.85	0.168
1067.27	0.237
1067.68	0.220
1068.10	0.239
1068.51	0.278
1068.93	0.234
1069.35	0.283
1069.76	0.218
1070.17	0.245
1070.59	0.320
1071.00	0.297
1071.42	0.144
1071.83	0.344
1072.25	0.409
1072.66	0.311
1073.08	0.322
1073.49	0.481
1073.91	0.299
1074.32	0.293
1074.74	0.285
1075.15	0.357
1075.57	0.299
1075.98	0.350
1076.40	0.271
1076.81	0.444
1077.22	0.485
1077.64	0.331
1078.05	0.453
1078.47	0.529
1078.88	0.512
1079.30	0.721
1079.71	1.415
1080.12	0.620
1080.54	0.672
1080.95	0.728
1081.37	-0.000
1081.78	0.340
1082.19	1.140
1082.61	1.032
1083.02	0.847
1083.44	1.241
1083.85	-0.000
1084.26	-0.000
1084.68	-0.000
1085.09	1.043
1085.50	1.526
1085.92	-0.000
1086.33	-0.000
1086.74	1.061
1087.16	-0.000
1087.57	-0.000
1087.98	-0.000
1088.40	1.574
1088.81	-0.000
1089.22	-0.000
1089.64	0.869
1090.05	-0.000
1090.46	-0.000
1090.88	-0.000
1091.29	0.896
1091.70	-0.000
1092.12	-0.000
1092.53	-0.000
1092.94	-0.000
1093.36	-0.000
1093.77	-0.000
1094.18	-0.000
1094.59	-0.000
1095.01	-0.000
1095.42	-0.000
1095.83	-0.000
1096.25	-0.000
1096.66	-0.000
1097.07	-0.000
1097.48	-0.000
1097.90	-0.000
1098.31	-0.000
1098.72	-0.000
1099.13	-0.000
>>>>>End Processed Spectral Data<<<<<
