SpectraSuite Data File
++++++++++++++++++++++++++++++++++++
Date: Sun Apr 24 18:23:29 CEST 2016
User: spectrasuite
Dark Spectrum Present: Yes
Reference Spectrum Present: Yes
Number of Sampled Component Spectra: 1
Spectrometers: HR+C0708
Integration Time (usec): 1000 (HR+C0708)
Spectra Averaged: 10 (HR+C0708)
Boxcar Smoothing: 0 (HR+C0708)
Correct for Electrical Dark: No (HR+C0708)
Strobe/Lamp Enabled: No (HR+C0708)
Correct for Detector Non-linearity: No (HR+C0708)
Correct for Stray Light: No (HR+C0708)
Number of Pixels in Processed Spectrum: 2048
>>>>>Begin Processed Spectral Data<<<<<
188.76	-0.000
189.23	-0.000
189.70	-0.000
190.17	-0.000
190.64	-0.000
191.12	-0.000
191.59	-0.000
192.06	-0.000
192.53	-0.000
193.01	-0.000
193.48	-0.000
193.95	-0.000
194.42	-0.000
194.90	-0.000
195.37	-0.000
195.84	-0.000
196.31	-0.000
196.78	-0.000
197.26	-0.000
197.73	-0.000
198.20	-0.000
198.67	-0.000
199.14	-0.000
199.62	-0.000
200.09	-0.000
200.56	-0.000
201.03	-0.000
201.50	-0.000
201.97	0.897
202.45	-0.000
202.92	1.746
203.39	-0.000
203.86	1.935
204.33	1.668
204.80	-0.000
205.28	-0.000
205.75	-0.000
206.22	-0.000
206.69	1.194
207.16	-0.000
207.63	-0.000
208.11	1.085
208.58	-0.000
209.05	-0.000
209.52	1.566
209.99	-0.000
210.46	-0.000
210.93	-0.000
211.41	-0.000
211.88	-0.000
212.35	0.973
212.82	-0.000
213.29	-0.000
213.76	1.010
214.23	-0.000
214.70	-0.000
215.18	-0.000
215.65	1.840
216.12	1.446
216.59	-0.000
217.06	-0.000
217.53	1.341
218.00	-0.000
218.47	-0.000
218.94	-0.000
219.41	-0.000
219.89	-0.000
220.36	-0.000
220.83	-0.000
221.30	-0.000
221.77	-0.000
222.24	1.695
222.71	-0.000
223.18	-0.000
223.65	-0.000
224.12	-0.000
224.59	-0.000
225.06	-0.000
225.54	1.684
226.01	1.662
226.48	2.068
226.95	-0.000
227.42	-0.000
227.89	-0.000
228.36	1.833
228.83	-0.000
229.30	2.149
229.77	-0.000
230.24	1.993
230.71	-0.000
231.18	-0.000
231.65	2.074
232.12	2.376
232.59	2.563
233.06	2.033
233.53	-0.000
234.00	2.290
234.47	-0.000
234.94	-0.000
235.41	3.473
235.88	-0.000
236.35	-0.000
236.82	2.703
237.29	-0.000
237.76	-0.000
238.23	-0.000
238.70	-0.000
239.17	2.767
239.64	2.926
240.11	-0.000
240.58	4.441
241.05	3.431
241.52	-0.000
241.99	-0.000
242.46	-0.000
242.93	-0.000
243.40	2.858
243.87	3.901
244.34	2.731
244.81	2.796
245.28	-0.000
245.75	-0.000
246.22	-0.000
246.69	-0.000
247.16	3.085
247.63	-0.000
248.10	3.489
248.57	3.398
249.04	-0.000
249.51	-0.000
249.98	3.598
250.45	-0.000
250.92	3.754
251.39	-0.000
251.85	-0.000
252.32	-0.000
252.79	-0.000
253.26	-0.000
253.73	-0.000
254.20	4.138
254.67	2.881
255.14	2.765
255.61	-0.000
256.08	2.966
256.55	3.125
257.02	2.777
257.49	2.777
257.95	2.640
258.42	2.733
258.89	2.604
259.36	2.562
259.83	2.584
260.30	2.528
260.77	2.675
261.24	2.342
261.71	2.355
262.17	2.380
262.64	2.227
263.11	2.302
263.58	2.318
264.05	2.268
264.52	2.238
264.99	2.179
265.46	2.156
265.92	2.221
266.39	2.181
266.86	2.139
267.33	2.136
267.80	2.026
268.27	2.107
268.74	2.121
269.20	2.079
269.67	2.045
270.14	1.979
270.61	1.987
271.08	2.025
271.55	1.942
272.01	1.946
272.48	1.964
272.95	1.939
273.42	1.917
273.89	1.933
274.36	1.859
274.82	1.874
275.29	1.844
275.76	1.822
276.23	1.847
276.70	1.808
277.16	1.764
277.63	1.791
278.10	1.778
278.57	1.768
279.04	1.763
279.50	1.763
279.97	1.738
280.44	1.697
280.91	1.689
281.38	1.705
281.84	1.693
282.31	1.665
282.78	1.695
283.25	1.665
283.72	1.654
284.18	1.669
284.65	1.649
285.12	1.616
285.59	1.614
286.05	1.621
286.52	1.620
286.99	1.583
287.46	1.573
287.92	1.571
288.39	1.557
288.86	1.547
289.33	1.543
289.79	1.540
290.26	1.537
290.73	1.527
291.20	1.511
291.66	1.506
292.13	1.507
292.60	1.461
293.07	1.486
293.53	1.462
294.00	1.447
294.47	1.460
294.93	1.442
295.40	1.443
295.87	1.442
296.34	1.426
296.80	1.400
297.27	1.404
297.74	1.381
298.20	1.410
298.67	1.380
299.14	1.370
299.60	1.377
300.07	1.355
300.54	1.342
301.01	1.350
301.47	1.321
301.94	1.323
302.41	1.324
302.87	1.304
303.34	1.310
303.81	1.288
304.27	1.285
304.74	1.285
305.21	1.266
305.67	1.263
306.14	1.257
306.61	1.253
307.07	1.240
307.54	1.236
308.01	1.232
308.47	1.227
308.94	1.220
309.40	1.204
309.87	1.202
310.34	1.194
310.80	1.186
311.27	1.189
311.74	1.171
312.20	1.175
312.67	1.166
313.13	1.152
313.60	1.160
314.07	1.150
314.53	1.137
315.00	1.138
315.47	1.140
315.93	1.125
316.40	1.126
316.86	1.122
317.33	1.113
317.80	1.107
318.26	1.102
318.73	1.102
319.19	1.100
319.66	1.080
320.13	1.090
320.59	1.081
321.06	1.080
321.52	1.081
321.99	1.074
322.45	1.063
322.92	1.065
323.39	1.049
323.85	1.052
324.32	1.046
324.78	1.046
325.25	1.040
325.71	1.033
326.18	1.020
326.64	1.029
327.11	1.022
327.58	1.014
328.04	1.006
328.51	1.007
328.97	1.008
329.44	1.007
329.90	0.995
330.37	0.998
330.83	0.989
331.30	0.983
331.76	0.987
332.23	0.982
332.69	0.970
333.16	0.968
333.62	0.965
334.09	0.963
334.56	0.959
335.02	0.955
335.49	0.946
335.95	0.943
336.42	0.935
336.88	0.939
337.35	0.927
337.81	0.924
338.28	0.924
338.74	0.922
339.20	0.914
339.67	0.917
340.13	0.914
340.60	0.901
341.06	0.898
341.53	0.892
341.99	0.898
342.46	0.886
342.92	0.877
343.39	0.877
343.85	0.877
344.32	0.870
344.78	0.867
345.25	0.864
345.71	0.865
346.17	0.861
346.64	0.853
347.10	0.853
347.57	0.839
348.03	0.835
348.50	0.829
348.96	0.823
349.43	0.814
349.89	0.811
350.35	0.809
350.82	0.803
351.28	0.804
351.75	0.787
352.21	0.795
352.67	0.778
353.14	0.770
353.60	0.773
354.07	0.757
354.53	0.753
355.00	0.751
355.46	0.744
355.92	0.737
356.39	0.730
356.85	0.729
357.31	0.723
357.78	0.715
358.24	0.703
358.71	0.700
359.17	0.692
359.63	0.687
360.10	0.682
360.56	0.683
361.03	0.675
361.49	0.673
361.95	0.669
362.42	0.661
362.88	0.661
363.34	0.655
363.81	0.654
364.27	0.646
364.73	0.641
365.20	0.641
365.66	0.637
366.12	0.636
366.59	0.634
367.05	0.630
367.51	0.627
367.98	0.621
368.44	0.619
368.90	0.617
369.37	0.613
369.83	0.614
370.29	0.611
370.76	0.604
371.22	0.603
371.68	0.608
372.15	0.597
372.61	0.595
373.07	0.592
373.54	0.595
374.00	0.591
374.46	0.591
374.92	0.585
375.39	0.588
375.85	0.588
376.31	0.585
376.78	0.577
377.24	0.582
377.70	0.579
378.16	0.575
378.63	0.570
379.09	0.572
379.55	0.568
380.01	0.568
380.48	0.569
380.94	0.563
381.40	0.564
381.87	0.561
382.33	0.560
382.79	0.560
383.25	0.555
383.72	0.554
384.18	0.554
384.64	0.548
385.10	0.547
385.56	0.549
386.03	0.547
386.49	0.543
386.95	0.542
387.41	0.540
387.88	0.541
388.34	0.538
388.80	0.537
389.26	0.534
389.72	0.536
390.19	0.531
390.65	0.533
391.11	0.531
391.57	0.525
392.04	0.525
392.50	0.520
392.96	0.520
393.42	0.522
393.88	0.521
394.34	0.519
394.81	0.517
395.27	0.515
395.73	0.517
396.19	0.513
396.65	0.509
397.12	0.510
397.58	0.508
398.04	0.505
398.50	0.508
398.96	0.503
399.42	0.506
399.89	0.505
400.35	0.498
400.81	0.500
401.27	0.499
401.73	0.497
402.19	0.494
402.65	0.494
403.12	0.489
403.58	0.489
404.04	0.490
404.50	0.488
404.96	0.486
405.42	0.484
405.88	0.486
406.34	0.486
406.81	0.478
407.27	0.480
407.73	0.479
408.19	0.476
408.65	0.475
409.11	0.473
409.57	0.477
410.03	0.474
410.49	0.471
410.96	0.470
411.42	0.469
411.88	0.462
412.34	0.461
412.80	0.460
413.26	0.461
413.72	0.460
414.18	0.460
414.64	0.458
415.10	0.461
415.56	0.455
416.02	0.458
416.48	0.455
416.95	0.451
417.41	0.454
417.87	0.451
418.33	0.450
418.79	0.448
419.25	0.450
419.71	0.446
420.17	0.445
420.63	0.442
421.09	0.441
421.55	0.440
422.01	0.443
422.47	0.441
422.93	0.440
423.39	0.439
423.85	0.437
424.31	0.435
424.77	0.433
425.23	0.439
425.69	0.436
426.15	0.432
426.61	0.431
427.07	0.427
427.53	0.428
427.99	0.424
428.45	0.425
428.91	0.425
429.37	0.421
429.83	0.420
430.29	0.421
430.75	0.422
431.21	0.424
431.67	0.423
432.13	0.422
432.59	0.415
433.05	0.415
433.51	0.410
433.97	0.417
434.43	0.416
434.89	0.414
435.35	0.414
435.81	0.412
436.27	0.407
436.73	0.407
437.19	0.405
437.65	0.410
438.11	0.407
438.57	0.403
439.03	0.409
439.48	0.402
439.94	0.404
440.40	0.402
440.86	0.402
441.32	0.398
441.78	0.400
442.24	0.395
442.70	0.396
443.16	0.397
443.62	0.389
444.08	0.394
444.54	0.394
444.99	0.390
445.45	0.393
445.91	0.390
446.37	0.393
446.83	0.388
447.29	0.386
447.75	0.389
448.21	0.385
448.67	0.384
449.12	0.383
449.58	0.383
450.04	0.383
450.50	0.384
450.96	0.383
451.42	0.380
451.88	0.376
452.34	0.379
452.79	0.378
453.25	0.376
453.71	0.375
454.17	0.374
454.63	0.377
455.09	0.370
455.55	0.374
456.00	0.369
456.46	0.372
456.92	0.368
457.38	0.373
457.84	0.365
458.30	0.363
458.75	0.367
459.21	0.361
459.67	0.367
460.13	0.361
460.59	0.364
461.04	0.361
461.50	0.361
461.96	0.360
462.42	0.360
462.88	0.358
463.33	0.361
463.79	0.357
464.25	0.356
464.71	0.356
465.17	0.352
465.62	0.356
466.08	0.355
466.54	0.353
467.00	0.354
467.46	0.353
467.91	0.353
468.37	0.353
468.83	0.350
469.29	0.350
469.74	0.349
470.20	0.349
470.66	0.350
471.12	0.343
471.57	0.346
472.03	0.346
472.49	0.346
472.95	0.345
473.40	0.344
473.86	0.341
474.32	0.340
474.78	0.342
475.23	0.339
475.69	0.341
476.15	0.338
476.60	0.340
477.06	0.339
477.52	0.337
477.98	0.335
478.43	0.336
478.89	0.336
479.35	0.335
479.80	0.335
480.26	0.331
480.72	0.333
481.18	0.333
481.63	0.330
482.09	0.333
482.55	0.331
483.00	0.328
483.46	0.329
483.92	0.327
484.37	0.327
484.83	0.324
485.29	0.324
485.74	0.323
486.20	0.325
486.66	0.325
487.11	0.323
487.57	0.322
488.03	0.322
488.48	0.320
488.94	0.320
489.40	0.320
489.85	0.322
490.31	0.322
490.77	0.320
491.22	0.318
491.68	0.317
492.13	0.316
492.59	0.317
493.05	0.313
493.50	0.316
493.96	0.314
494.42	0.312
494.87	0.312
495.33	0.312
495.78	0.314
496.24	0.314
496.70	0.310
497.15	0.311
497.61	0.312
498.06	0.309
498.52	0.306
498.98	0.308
499.43	0.308
499.89	0.308
500.34	0.306
500.80	0.302
501.25	0.306
501.71	0.302
502.17	0.304
502.62	0.305
503.08	0.302
503.53	0.300
503.99	0.299
504.44	0.301
504.90	0.301
505.36	0.300
505.81	0.300
506.27	0.300
506.72	0.299
507.18	0.299
507.63	0.297
508.09	0.297
508.54	0.297
509.00	0.297
509.45	0.295
509.91	0.295
510.36	0.295
510.82	0.295
511.27	0.293
511.73	0.292
512.19	0.292
512.64	0.292
513.10	0.291
513.55	0.293
514.01	0.290
514.46	0.290
514.92	0.289
515.37	0.288
515.83	0.291
516.28	0.289
516.73	0.287
517.19	0.287
517.64	0.284
518.10	0.285
518.55	0.286
519.01	0.283
519.46	0.284
519.92	0.286
520.37	0.281
520.83	0.282
521.28	0.282
521.74	0.284
522.19	0.284
522.65	0.282
523.10	0.282
523.55	0.280
524.01	0.281
524.46	0.279
524.92	0.277
525.37	0.279
525.83	0.277
526.28	0.279
526.73	0.277
527.19	0.277
527.64	0.278
528.10	0.277
528.55	0.279
529.01	0.277
529.46	0.275
529.91	0.275
530.37	0.274
530.82	0.273
531.28	0.274
531.73	0.272
532.18	0.272
532.64	0.274
533.09	0.272
533.54	0.272
534.00	0.272
534.45	0.271
534.91	0.272
535.36	0.272
535.81	0.271
536.27	0.270
536.72	0.271
537.17	0.270
537.63	0.268
538.08	0.264
538.54	0.268
538.99	0.266
539.44	0.269
539.90	0.266
540.35	0.267
540.80	0.267
541.26	0.267
541.71	0.267
542.16	0.264
542.62	0.266
543.07	0.263
543.52	0.264
543.98	0.267
544.43	0.263
544.88	0.263
545.34	0.265
545.79	0.263
546.24	0.263
546.69	0.263
547.15	0.261
547.60	0.261
548.05	0.262
548.51	0.260
548.96	0.262
549.41	0.265
549.86	0.260
550.32	0.262
550.77	0.261
551.22	0.261
551.68	0.259
552.13	0.259
552.58	0.258
553.03	0.259
553.49	0.260
553.94	0.259
554.39	0.259
554.84	0.258
555.30	0.258
555.75	0.258
556.20	0.258
556.65	0.258
557.11	0.257
557.56	0.254
558.01	0.261
558.46	0.257
558.92	0.256
559.37	0.257
559.82	0.257
560.27	0.256
560.72	0.255
561.18	0.258
561.63	0.254
562.08	0.252
562.53	0.255
562.99	0.254
563.44	0.256
563.89	0.254
564.34	0.253
564.79	0.254
565.25	0.254
565.70	0.250
566.15	0.254
566.60	0.253
567.05	0.252
567.50	0.253
567.96	0.251
568.41	0.254
568.86	0.252
569.31	0.249
569.76	0.249
570.21	0.252
570.67	0.252
571.12	0.250
571.57	0.251
572.02	0.250
572.47	0.252
572.92	0.250
573.37	0.249
573.83	0.249
574.28	0.250
574.73	0.248
575.18	0.251
575.63	0.252
576.08	0.249
576.53	0.249
576.98	0.249
577.44	0.248
577.89	0.249
578.34	0.248
578.79	0.249
579.24	0.248
579.69	0.250
580.14	0.246
580.59	0.247
581.04	0.247
581.49	0.247
581.95	0.248
582.40	0.247
582.85	0.248
583.30	0.247
583.75	0.247
584.20	0.247
584.65	0.248
585.10	0.248
585.55	0.247
586.00	0.248
586.45	0.248
586.90	0.251
587.35	0.251
587.80	0.248
588.25	0.248
588.71	0.250
589.16	0.248
589.61	0.248
590.06	0.249
590.51	0.250
590.96	0.249
591.41	0.249
591.86	0.251
592.31	0.250
592.76	0.249
593.21	0.250
593.66	0.252
594.11	0.251
594.56	0.248
595.01	0.251
595.46	0.250
595.91	0.250
596.36	0.249
596.81	0.250
597.26	0.251
597.71	0.253
598.16	0.251
598.61	0.250
599.06	0.251
599.51	0.253
599.96	0.254
600.41	0.252
600.86	0.254
601.31	0.251
601.76	0.253
602.21	0.255
602.65	0.253
603.10	0.252
603.55	0.251
604.00	0.253
604.45	0.253
604.90	0.254
605.35	0.253
605.80	0.255
606.25	0.255
606.70	0.256
607.15	0.254
607.60	0.252
608.05	0.252
608.50	0.254
608.95	0.253
609.39	0.255
609.84	0.255
610.29	0.253
610.74	0.254
611.19	0.254
611.64	0.252
612.09	0.254
612.54	0.253
612.99	0.255
613.44	0.253
613.88	0.253
614.33	0.253
614.78	0.252
615.23	0.251
615.68	0.252
616.13	0.254
616.58	0.252
617.03	0.251
617.47	0.253
617.92	0.253
618.37	0.252
618.82	0.254
619.27	0.251
619.72	0.252
620.17	0.251
620.61	0.252
621.06	0.252
621.51	0.254
621.96	0.250
622.41	0.253
622.86	0.252
623.30	0.251
623.75	0.252
624.20	0.252
624.65	0.253
625.10	0.252
625.54	0.250
625.99	0.253
626.44	0.252
626.89	0.252
627.34	0.254
627.78	0.251
628.23	0.253
628.68	0.252
629.13	0.250
629.58	0.251
630.02	0.252
630.47	0.251
630.92	0.253
631.37	0.252
631.81	0.253
632.26	0.253
632.71	0.253
633.16	0.253
633.61	0.255
634.05	0.252
634.50	0.255
634.95	0.255
635.40	0.255
635.84	0.257
636.29	0.254
636.74	0.257
637.18	0.257
637.63	0.256
638.08	0.255
638.53	0.256
638.97	0.255
639.42	0.258
639.87	0.257
640.32	0.256
640.76	0.258
641.21	0.257
641.66	0.259
642.10	0.259
642.55	0.259
643.00	0.258
643.44	0.260
643.89	0.260
644.34	0.260
644.79	0.260
645.23	0.260
645.68	0.261
646.13	0.262
646.57	0.263
647.02	0.261
647.47	0.263
647.91	0.262
648.36	0.262
648.81	0.263
649.25	0.263
649.70	0.261
650.15	0.262
650.59	0.263
651.04	0.263
651.48	0.266
651.93	0.266
652.38	0.262
652.82	0.263
653.27	0.264
653.72	0.265
654.16	0.263
654.61	0.266
655.06	0.264
655.50	0.261
655.95	0.261
656.39	0.255
656.84	0.260
657.29	0.265
657.73	0.264
658.18	0.264
658.62	0.262
659.07	0.262
659.52	0.265
659.96	0.263
660.41	0.263
660.85	0.260
661.30	0.261
661.74	0.262
662.19	0.259
662.64	0.259
663.08	0.257
663.53	0.259
663.97	0.256
664.42	0.259
664.86	0.258
665.31	0.256
665.75	0.255
666.20	0.255
666.65	0.254
667.09	0.252
667.54	0.255
667.98	0.251
668.43	0.249
668.87	0.249
669.32	0.249
669.76	0.247
670.21	0.248
670.65	0.244
671.10	0.243
671.54	0.242
671.99	0.240
672.43	0.238
672.88	0.238
673.32	0.236
673.77	0.235
674.21	0.234
674.66	0.232
675.10	0.229
675.55	0.227
675.99	0.229
676.44	0.224
676.88	0.225
677.33	0.222
677.77	0.221
678.22	0.218
678.66	0.214
679.11	0.214
679.55	0.214
679.99	0.209
680.44	0.211
680.88	0.207
681.33	0.207
681.77	0.203
682.22	0.205
682.66	0.203
683.11	0.200
683.55	0.199
683.99	0.198
684.44	0.195
684.88	0.193
685.33	0.192
685.77	0.191
686.21	0.189
686.66	0.189
687.10	0.186
687.55	0.185
687.99	0.185
688.44	0.184
688.88	0.179
689.32	0.181
689.77	0.178
690.21	0.179
690.65	0.180
691.10	0.178
691.54	0.175
691.99	0.173
692.43	0.172
692.87	0.170
693.32	0.171
693.76	0.172
694.20	0.171
694.65	0.170
695.09	0.169
695.53	0.167
695.98	0.166
696.42	0.166
696.86	0.163
697.31	0.165
697.75	0.162
698.19	0.162
698.64	0.162
699.08	0.163
699.52	0.161
699.97	0.161
700.41	0.160
700.85	0.163
701.30	0.160
701.74	0.158
702.18	0.160
702.63	0.160
703.07	0.159
703.51	0.160
703.96	0.157
704.40	0.157
704.84	0.157
705.28	0.158
705.73	0.156
706.17	0.156
706.61	0.155
707.06	0.154
707.50	0.154
707.94	0.152
708.38	0.155
708.83	0.155
709.27	0.153
709.71	0.154
710.15	0.154
710.60	0.153
711.04	0.153
711.48	0.153
711.92	0.153
712.37	0.153
712.81	0.155
713.25	0.153
713.69	0.151
714.13	0.152
714.58	0.151
715.02	0.150
715.46	0.150
715.90	0.151
716.35	0.149
716.79	0.151
717.23	0.151
717.67	0.150
718.11	0.153
718.56	0.149
719.00	0.151
719.44	0.150
719.88	0.149
720.32	0.149
720.76	0.150
721.21	0.148
721.65	0.150
722.09	0.150
722.53	0.150
722.97	0.152
723.41	0.146
723.86	0.149
724.30	0.149
724.74	0.150
725.18	0.149
725.62	0.147
726.06	0.150
726.50	0.147
726.95	0.147
727.39	0.147
727.83	0.149
728.27	0.150
728.71	0.147
729.15	0.148
729.59	0.149
730.03	0.146
730.48	0.151
730.92	0.146
731.36	0.146
731.80	0.146
732.24	0.149
732.68	0.148
733.12	0.146
733.56	0.146
734.00	0.148
734.44	0.147
734.89	0.148
735.33	0.149
735.77	0.150
736.21	0.149
736.65	0.147
737.09	0.149
737.53	0.150
737.97	0.149
738.41	0.147
738.85	0.149
739.29	0.150
739.73	0.147
740.17	0.149
740.61	0.148
741.05	0.148
741.49	0.148
741.93	0.147
742.37	0.145
742.81	0.145
743.26	0.144
743.70	0.149
744.14	0.146
744.58	0.145
745.02	0.148
745.46	0.146
745.90	0.145
746.34	0.147
746.78	0.145
747.22	0.146
747.66	0.146
748.10	0.145
748.54	0.145
748.98	0.144
749.42	0.144
749.86	0.146
750.29	0.145
750.73	0.143
751.17	0.143
751.61	0.143
752.05	0.144
752.49	0.145
752.93	0.141
753.37	0.144
753.81	0.142
754.25	0.141
754.69	0.140
755.13	0.143
755.57	0.144
756.01	0.143
756.45	0.142
756.89	0.143
757.33	0.143
757.77	0.141
758.21	0.143
758.64	0.141
759.08	0.139
759.52	0.142
759.96	0.143
760.40	0.142
760.84	0.140
761.28	0.142
761.72	0.142
762.16	0.141
762.60	0.139
763.03	0.139
763.47	0.138
763.91	0.141
764.35	0.137
764.79	0.136
765.23	0.136
765.67	0.139
766.11	0.136
766.54	0.136
766.98	0.139
767.42	0.137
767.86	0.138
768.30	0.138
768.74	0.140
769.17	0.140
769.61	0.139
770.05	0.138
770.49	0.140
770.93	0.139
771.37	0.135
771.80	0.139
772.24	0.136
772.68	0.137
773.12	0.137
773.56	0.135
774.00	0.135
774.43	0.135
774.87	0.136
775.31	0.136
775.75	0.134
776.19	0.135
776.62	0.134
777.06	0.136
777.50	0.135
777.94	0.134
778.37	0.133
778.81	0.134
779.25	0.136
779.69	0.133
780.13	0.139
780.56	0.136
781.00	0.133
781.44	0.133
781.88	0.135
782.31	0.135
782.75	0.133
783.19	0.138
783.63	0.134
784.06	0.133
784.50	0.132
784.94	0.133
785.37	0.134
785.81	0.136
786.25	0.131
786.69	0.132
787.12	0.133
787.56	0.131
788.00	0.133
788.43	0.135
788.87	0.133
789.31	0.128
789.75	0.133
790.18	0.129
790.62	0.131
791.06	0.132
791.49	0.130
791.93	0.133
792.37	0.133
792.80	0.131
793.24	0.131
793.68	0.131
794.11	0.128
794.55	0.134
794.99	0.131
795.42	0.132
795.86	0.135
796.30	0.131
796.73	0.130
797.17	0.127
797.61	0.130
798.04	0.133
798.48	0.128
798.91	0.128
799.35	0.129
799.79	0.134
800.22	0.129
800.66	0.128
801.10	0.130
801.53	0.130
801.97	0.137
802.40	0.131
802.84	0.128
803.28	0.127
803.71	0.129
804.15	0.132
804.58	0.131
805.02	0.129
805.46	0.132
805.89	0.126
806.33	0.127
806.76	0.130
807.20	0.130
807.63	0.129
808.07	0.130
808.51	0.129
808.94	0.127
809.38	0.128
809.81	0.128
810.25	0.131
810.68	0.132
811.12	0.130
811.55	0.129
811.99	0.127
812.42	0.128
812.86	0.125
813.29	0.126
813.73	0.127
814.17	0.124
814.60	0.124
815.04	0.126
815.47	0.125
815.91	0.123
816.34	0.131
816.78	0.127
817.21	0.128
817.65	0.130
818.08	0.127
818.52	0.130
818.95	0.130
819.39	0.124
819.82	0.128
820.25	0.129
820.69	0.127
821.12	0.131
821.56	0.122
821.99	0.124
822.43	0.125
822.86	0.129
823.30	0.125
823.73	0.129
824.17	0.124
824.60	0.124
825.04	0.132
825.47	0.125
825.90	0.125
826.34	0.126
826.77	0.126
827.21	0.129
827.64	0.130
828.08	0.126
828.51	0.129
828.94	0.124
829.38	0.123
829.81	0.134
830.25	0.127
830.68	0.130
831.11	0.130
831.55	0.128
831.98	0.135
832.42	0.129
832.85	0.130
833.28	0.131
833.72	0.130
834.15	0.128
834.58	0.129
835.02	0.132
835.45	0.136
835.88	0.134
836.32	0.134
836.75	0.132
837.19	0.132
837.62	0.134
838.05	0.134
838.49	0.131
838.92	0.132
839.35	0.130
839.79	0.129
840.22	0.133
840.65	0.129
841.09	0.135
841.52	0.131
841.95	0.137
842.39	0.133
842.82	0.126
843.25	0.131
843.68	0.132
844.12	0.131
844.55	0.126
844.98	0.132
845.42	0.135
845.85	0.129
846.28	0.136
846.71	0.132
847.15	0.133
847.58	0.135
848.01	0.136
848.45	0.135
848.88	0.133
849.31	0.130
849.74	0.133
850.18	0.132
850.61	0.128
851.04	0.138
851.47	0.132
851.91	0.135
852.34	0.133
852.77	0.134
853.20	0.131
853.64	0.133
854.07	0.136
854.50	0.130
854.93	0.134
855.36	0.130
855.80	0.131
856.23	0.127
856.66	0.134
857.09	0.131
857.52	0.132
857.96	0.127
858.39	0.133
858.82	0.129
859.25	0.138
859.68	0.134
860.12	0.129
860.55	0.127
860.98	0.132
861.41	0.128
861.84	0.133
862.27	0.127
862.71	0.131
863.14	0.131
863.57	0.127
864.00	0.130
864.43	0.132
864.86	0.127
865.30	0.138
865.73	0.135
866.16	0.131
866.59	0.135
867.02	0.134
867.45	0.132
867.88	0.134
868.31	0.132
868.75	0.136
869.18	0.135
869.61	0.135
870.04	0.135
870.47	0.138
870.90	0.132
871.33	0.138
871.76	0.140
872.19	0.138
872.62	0.135
873.06	0.128
873.49	0.135
873.92	0.133
874.35	0.132
874.78	0.135
875.21	0.133
875.64	0.126
876.07	0.138
876.50	0.130
876.93	0.140
877.36	0.137
877.79	0.134
878.22	0.134
878.65	0.135
879.08	0.130
879.51	0.142
879.94	0.133
880.37	0.134
880.80	0.142
881.23	0.124
881.67	0.138
882.10	0.138
882.53	0.133
882.96	0.139
883.39	0.133
883.82	0.131
884.25	0.135
884.68	0.134
885.11	0.133
885.54	0.140
885.97	0.136
886.39	0.127
886.82	0.132
887.25	0.135
887.68	0.138
888.11	0.137
888.54	0.134
888.97	0.139
889.40	0.133
889.83	0.134
890.26	0.135
890.69	0.135
891.12	0.134
891.55	0.135
891.98	0.135
892.41	0.132
892.84	0.138
893.27	0.137
893.70	0.132
894.13	0.138
894.56	0.137
894.98	0.141
895.41	0.141
895.84	0.136
896.27	0.138
896.70	0.137
897.13	0.137
897.56	0.136
897.99	0.136
898.42	0.131
898.85	0.138
899.27	0.137
899.70	0.140
900.13	0.135
900.56	0.141
900.99	0.139
901.42	0.140
901.85	0.136
902.28	0.137
902.70	0.137
903.13	0.142
903.56	0.143
903.99	0.134
904.42	0.136
904.85	0.138
905.27	0.130
905.70	0.139
906.13	0.139
906.56	0.137
906.99	0.145
907.42	0.137
907.84	0.137
908.27	0.138
908.70	0.143
909.13	0.138
909.56	0.133
909.98	0.134
910.41	0.135
910.84	0.136
911.27	0.143
911.70	0.135
912.12	0.133
912.55	0.134
912.98	0.140
913.41	0.138
913.84	0.137
914.26	0.133
914.69	0.135
915.12	0.138
915.55	0.135
915.97	0.135
916.40	0.137
916.83	0.135
917.26	0.135
917.68	0.138
918.11	0.137
918.54	0.136
918.97	0.137
919.39	0.135
919.82	0.139
920.25	0.136
920.67	0.135
921.10	0.141
921.53	0.140
921.96	0.139
922.38	0.141
922.81	0.140
923.24	0.143
923.66	0.138
924.09	0.139
924.52	0.143
924.94	0.141
925.37	0.139
925.80	0.145
926.22	0.140
926.65	0.140
927.08	0.145
927.50	0.144
927.93	0.147
928.36	0.144
928.78	0.145
929.21	0.141
929.64	0.146
930.06	0.151
930.49	0.151
930.92	0.150
931.34	0.147
931.77	0.153
932.20	0.154
932.62	0.152
933.05	0.152
933.47	0.155
933.90	0.153
934.33	0.153
934.75	0.156
935.18	0.156
935.61	0.163
936.03	0.157
936.46	0.164
936.88	0.165
937.31	0.165
937.73	0.166
938.16	0.163
938.59	0.169
939.01	0.172
939.44	0.172
939.86	0.180
940.29	0.174
940.71	0.172
941.14	0.186
941.57	0.183
941.99	0.182
942.42	0.185
942.84	0.188
943.27	0.193
943.69	0.196
944.12	0.184
944.54	0.203
944.97	0.192
945.39	0.193
945.82	0.207
946.24	0.209
946.67	0.204
947.09	0.205
947.52	0.207
947.94	0.206
948.37	0.212
948.79	0.209
949.22	0.217
949.64	0.209
950.07	0.217
950.49	0.225
950.92	0.222
951.34	0.218
951.77	0.233
952.19	0.223
952.62	0.236
953.04	0.239
953.47	0.238
953.89	0.243
954.32	0.248
954.74	0.246
955.17	0.250
955.59	0.253
956.01	0.252
956.44	0.262
956.86	0.259
957.29	0.261
957.71	0.268
958.14	0.265
958.56	0.267
958.98	0.271
959.41	0.273
959.83	0.276
960.26	0.279
960.68	0.278
961.10	0.281
961.53	0.281
961.95	0.279
962.38	0.283
962.80	0.276
963.22	0.288
963.65	0.286
964.07	0.280
964.50	0.292
964.92	0.290
965.34	0.289
965.77	0.286
966.19	0.289
966.61	0.286
967.04	0.291
967.46	0.291
967.88	0.294
968.31	0.291
968.73	0.287
969.15	0.293
969.58	0.292
970.00	0.284
970.42	0.291
970.85	0.290
971.27	0.296
971.69	0.291
972.12	0.297
972.54	0.298
972.96	0.295
973.39	0.293
973.81	0.302
974.23	0.300
974.65	0.289
975.08	0.300
975.50	0.302
975.92	0.295
976.35	0.296
976.77	0.297
977.19	0.299
977.61	0.296
978.04	0.293
978.46	0.296
978.88	0.296
979.30	0.299
979.73	0.294
980.15	0.307
980.57	0.296
980.99	0.296
981.42	0.300
981.84	0.299
982.26	0.294
982.68	0.299
983.11	0.293
983.53	0.297
983.95	0.293
984.37	0.297
984.79	0.293
985.22	0.295
985.64	0.297
986.06	0.297
986.48	0.294
986.90	0.297
987.33	0.293
987.75	0.288
988.17	0.284
988.59	0.291
989.01	0.287
989.43	0.279
989.86	0.285
990.28	0.291
990.70	0.286
991.12	0.282
991.54	0.286
991.96	0.284
992.39	0.288
992.81	0.280
993.23	0.283
993.65	0.282
994.07	0.279
994.49	0.275
994.91	0.282
995.34	0.273
995.76	0.273
996.18	0.284
996.60	0.278
997.02	0.277
997.44	0.272
997.86	0.278
998.28	0.276
998.70	0.274
999.12	0.270
999.55	0.279
999.97	0.269
1000.39	0.268
1000.81	0.276
1001.23	0.268
1001.65	0.270
1002.07	0.279
1002.49	0.271
1002.91	0.263
1003.33	0.263
1003.75	0.265
1004.17	0.272
1004.59	0.267
1005.01	0.263
1005.43	0.266
1005.85	0.255
1006.28	0.260
1006.70	0.265
1007.12	0.260
1007.54	0.257
1007.96	0.253
1008.38	0.254
1008.80	0.259
1009.22	0.250
1009.64	0.244
1010.06	0.254
1010.48	0.250
1010.90	0.249
1011.32	0.247
1011.74	0.245
1012.16	0.246
1012.58	0.252
1013.00	0.245
1013.42	0.244
1013.84	0.247
1014.26	0.240
1014.67	0.253
1015.09	0.234
1015.51	0.244
1015.93	0.242
1016.35	0.243
1016.77	0.244
1017.19	0.240
1017.61	0.229
1018.03	0.236
1018.45	0.236
1018.87	0.232
1019.29	0.245
1019.71	0.236
1020.13	0.232
1020.55	0.240
1020.97	0.217
1021.38	0.222
1021.80	0.219
1022.22	0.223
1022.64	0.231
1023.06	0.224
1023.48	0.225
1023.90	0.223
1024.32	0.212
1024.74	0.222
1025.15	0.228
1025.57	0.220
1025.99	0.207
1026.41	0.230
1026.83	0.220
1027.25	0.235
1027.67	0.228
1028.08	0.203
1028.50	0.224
1028.92	0.210
1029.34	0.209
1029.76	0.221
1030.18	0.210
1030.60	0.205
1031.01	0.209
1031.43	0.221
1031.85	0.218
1032.27	0.216
1032.69	0.204
1033.10	0.217
1033.52	0.191
1033.94	0.193
1034.36	0.203
1034.78	0.209
1035.19	0.201
1035.61	0.204
1036.03	0.213
1036.45	0.206
1036.87	0.216
1037.28	0.190
1037.70	0.196
1038.12	0.197
1038.54	0.200
1038.95	0.186
1039.37	0.202
1039.79	0.185
1040.21	0.198
1040.62	0.199
1041.04	0.206
1041.46	0.200
1041.88	0.197
1042.29	0.209
1042.71	0.207
1043.13	0.191
1043.55	0.198
1043.96	0.209
1044.38	0.188
1044.80	0.202
1045.21	0.198
1045.63	0.183
1046.05	0.198
1046.47	0.198
1046.88	0.198
1047.30	0.213
1047.72	0.185
1048.13	0.209
1048.55	0.201
1048.97	0.194
1049.38	0.204
1049.80	0.171
1050.22	0.214
1050.63	0.179
1051.05	0.209
1051.47	0.196
1051.88	0.196
1052.30	0.200
1052.72	0.198
1053.13	0.189
1053.55	0.185
1053.97	0.189
1054.38	0.179
1054.80	0.194
1055.21	0.211
1055.63	0.179
1056.05	0.183
1056.46	0.213
1056.88	0.210
1057.29	0.212
1057.71	0.233
1058.13	0.208
1058.54	0.261
1058.96	0.218
1059.37	0.212
1059.79	0.233
1060.21	0.229
1060.62	0.204
1061.04	0.206
1061.45	0.227
1061.87	0.220
1062.28	0.220
1062.70	0.195
1063.12	0.202
1063.53	0.218
1063.95	0.193
1064.36	0.256
1064.78	0.262
1065.19	0.289
1065.61	0.259
1066.02	0.192
1066.44	0.256
1066.85	0.188
1067.27	0.271
1067.68	0.233
1068.10	0.261
1068.51	0.246
1068.93	0.370
1069.35	0.391
1069.76	0.242
1070.17	0.402
1070.59	0.290
1071.00	0.397
1071.42	0.313
1071.83	0.368
1072.25	0.424
1072.66	0.343
1073.08	0.516
1073.49	0.701
1073.91	0.250
1074.32	0.369
1074.74	0.368
1075.15	0.380
1075.57	0.358
1075.98	0.483
1076.40	0.344
1076.81	0.560
1077.22	0.448
1077.64	0.404
1078.05	0.703
1078.47	0.549
1078.88	0.587
1079.30	0.795
1079.71	1.854
1080.12	-0.000
1080.54	1.274
1080.95	0.708
1081.37	-0.000
1081.78	0.624
1082.19	0.450
1082.61	-0.000
1083.02	-0.000
1083.44	0.983
1083.85	-0.000
1084.26	-0.000
1084.68	-0.000
1085.09	-0.000
1085.50	-0.000
1085.92	-0.000
1086.33	-0.000
1086.74	0.988
1087.16	-0.000
1087.57	-0.000
1087.98	0.687
1088.40	-0.000
1088.81	-0.000
1089.22	-0.000
1089.64	-0.000
1090.05	-0.000
1090.46	-0.000
1090.88	-0.000
1091.29	0.670
1091.70	-0.000
1092.12	-0.000
1092.53	-0.000
1092.94	-0.000
1093.36	-0.000
1093.77	-0.000
1094.18	-0.000
1094.59	-0.000
1095.01	-0.000
1095.42	-0.000
1095.83	0.468
1096.25	-0.000
1096.66	-0.000
1097.07	-0.000
1097.48	-0.000
1097.90	-0.000
1098.31	-0.000
1098.72	-0.000
1099.13	-0.000
>>>>>End Processed Spectral Data<<<<<
