SpectraSuite Data File
++++++++++++++++++++++++++++++++++++
Date: Sun Apr 24 15:56:48 CEST 2016
User: spectrasuite
Dark Spectrum Present: Yes
Reference Spectrum Present: Yes
Number of Sampled Component Spectra: 1
Spectrometers: HR+C0708
Integration Time (usec): 1000 (HR+C0708)
Spectra Averaged: 10 (HR+C0708)
Boxcar Smoothing: 0 (HR+C0708)
Correct for Electrical Dark: No (HR+C0708)
Strobe/Lamp Enabled: No (HR+C0708)
Correct for Detector Non-linearity: No (HR+C0708)
Correct for Stray Light: No (HR+C0708)
Number of Pixels in Processed Spectrum: 2048
>>>>>Begin Processed Spectral Data<<<<<
188.76	-0.000
189.23	-0.000
189.70	-0.000
190.17	-0.000
190.64	-0.000
191.12	-0.000
191.59	-0.000
192.06	-0.000
192.53	-0.000
193.01	-0.000
193.48	-0.000
193.95	-0.000
194.42	-0.000
194.90	-0.000
195.37	-0.000
195.84	-0.000
196.31	-0.000
196.78	-0.000
197.26	-0.000
197.73	-0.000
198.20	-0.000
198.67	-0.000
199.14	-0.000
199.62	-0.000
200.09	-0.000
200.56	-0.000
201.03	-0.000
201.50	1.633
201.97	-0.000
202.45	-0.000
202.92	1.168
203.39	0.945
203.86	-0.000
204.33	-0.000
204.80	-0.000
205.28	-0.000
205.75	-0.000
206.22	-0.000
206.69	-0.000
207.16	1.693
207.63	1.042
208.11	0.774
208.58	1.027
209.05	-0.000
209.52	-0.000
209.99	-0.000
210.46	2.111
210.93	-0.000
211.41	-0.000
211.88	-0.000
212.35	-0.000
212.82	-0.000
213.29	-0.000
213.76	1.855
214.23	-0.000
214.70	-0.000
215.18	-0.000
215.65	1.898
216.12	1.284
216.59	1.818
217.06	-0.000
217.53	-0.000
218.00	-0.000
218.47	2.009
218.94	2.225
219.41	-0.000
219.89	-0.000
220.36	1.916
220.83	-0.000
221.30	-0.000
221.77	1.291
222.24	1.491
222.71	-0.000
223.18	-0.000
223.65	-0.000
224.12	-0.000
224.59	-0.000
225.06	2.429
225.54	1.444
226.01	1.678
226.48	-0.000
226.95	2.590
227.42	1.775
227.89	-0.000
228.36	1.859
228.83	-0.000
229.30	1.781
229.77	3.045
230.24	-0.000
230.71	-0.000
231.18	-0.000
231.65	-0.000
232.12	2.130
232.59	2.704
233.06	2.285
233.53	2.160
234.00	2.120
234.47	3.042
234.94	-0.000
235.41	2.714
235.88	2.621
236.35	-0.000
236.82	2.541
237.29	2.164
237.76	-0.000
238.23	-0.000
238.70	3.548
239.17	2.358
239.64	3.184
240.11	-0.000
240.58	3.596
241.05	2.765
241.52	-0.000
241.99	-0.000
242.46	2.609
242.93	-0.000
243.40	2.858
243.87	2.830
244.34	2.864
244.81	2.777
245.28	-0.000
245.75	-0.000
246.22	3.491
246.69	-0.000
247.16	3.344
247.63	2.779
248.10	2.873
248.57	-0.000
249.04	-0.000
249.51	4.228
249.98	-0.000
250.45	-0.000
250.92	3.009
251.39	-0.000
251.85	-0.000
252.32	-0.000
252.79	3.328
253.26	-0.000
253.73	-0.000
254.20	2.876
254.67	3.231
255.14	3.015
255.61	-0.000
256.08	-0.000
256.55	-0.000
257.02	2.946
257.49	3.629
257.95	3.002
258.42	-0.000
258.89	3.187
259.36	3.130
259.83	-0.000
260.30	-0.000
260.77	-0.000
261.24	2.932
261.71	3.118
262.17	3.393
262.64	3.110
263.11	3.153
263.58	3.461
264.05	4.282
264.52	2.881
264.99	3.065
265.46	3.246
265.92	3.074
266.39	3.023
266.86	2.993
267.33	3.214
267.80	2.734
268.27	3.037
268.74	2.937
269.20	3.197
269.67	2.652
270.14	2.902
270.61	2.709
271.08	2.919
271.55	2.632
272.01	2.694
272.48	2.658
272.95	2.665
273.42	2.607
273.89	2.765
274.36	2.636
274.82	2.447
275.29	2.625
275.76	2.545
276.23	2.469
276.70	2.502
277.16	2.423
277.63	2.370
278.10	2.519
278.57	2.353
279.04	2.335
279.50	2.471
279.97	2.356
280.44	2.405
280.91	2.407
281.38	2.292
281.84	2.390
282.31	2.349
282.78	2.405
283.25	2.346
283.72	2.300
284.18	2.307
284.65	2.306
285.12	2.216
285.59	2.206
286.05	2.309
286.52	2.226
286.99	2.251
287.46	2.206
287.92	2.215
288.39	2.164
288.86	2.148
289.33	2.163
289.79	2.196
290.26	2.137
290.73	2.154
291.20	2.179
291.66	2.120
292.13	2.108
292.60	2.094
293.07	2.072
293.53	2.038
294.00	2.083
294.47	2.106
294.93	2.097
295.40	2.052
295.87	2.058
296.34	2.102
296.80	1.978
297.27	2.012
297.74	1.998
298.20	2.007
298.67	1.987
299.14	1.992
299.60	1.978
300.07	1.969
300.54	1.936
301.01	1.940
301.47	1.912
301.94	1.892
302.41	1.927
302.87	1.903
303.34	1.925
303.81	1.925
304.27	1.923
304.74	1.879
305.21	1.892
305.67	1.905
306.14	1.869
306.61	1.874
307.07	1.817
307.54	1.847
308.01	1.883
308.47	1.850
308.94	1.918
309.40	1.844
309.87	1.811
310.34	1.823
310.80	1.791
311.27	1.816
311.74	1.800
312.20	1.810
312.67	1.799
313.13	1.770
313.60	1.787
314.07	1.782
314.53	1.753
315.00	1.751
315.47	1.771
315.93	1.761
316.40	1.748
316.86	1.739
317.33	1.718
317.80	1.720
318.26	1.715
318.73	1.713
319.19	1.718
319.66	1.677
320.13	1.709
320.59	1.708
321.06	1.686
321.52	1.678
321.99	1.669
322.45	1.655
322.92	1.638
323.39	1.648
323.85	1.649
324.32	1.644
324.78	1.637
325.25	1.654
325.71	1.624
326.18	1.593
326.64	1.617
327.11	1.591
327.58	1.585
328.04	1.566
328.51	1.588
328.97	1.550
329.44	1.557
329.90	1.553
330.37	1.539
330.83	1.527
331.30	1.537
331.76	1.518
332.23	1.507
332.69	1.481
333.16	1.467
333.62	1.462
334.09	1.448
334.56	1.434
335.02	1.426
335.49	1.416
335.95	1.404
336.42	1.383
336.88	1.369
337.35	1.354
337.81	1.344
338.28	1.329
338.74	1.324
339.20	1.296
339.67	1.282
340.13	1.275
340.60	1.253
341.06	1.232
341.53	1.211
341.99	1.214
342.46	1.188
342.92	1.167
343.39	1.157
343.85	1.136
344.32	1.114
344.78	1.101
345.25	1.099
345.71	1.075
346.17	1.062
346.64	1.043
347.10	1.028
347.57	1.001
348.03	0.979
348.50	0.962
348.96	0.948
349.43	0.932
349.89	0.917
350.35	0.909
350.82	0.891
351.28	0.879
351.75	0.861
352.21	0.855
352.67	0.831
353.14	0.829
353.60	0.817
354.07	0.795
354.53	0.784
355.00	0.774
355.46	0.765
355.92	0.750
356.39	0.740
356.85	0.740
357.31	0.730
357.78	0.723
358.24	0.707
358.71	0.703
359.17	0.696
359.63	0.692
360.10	0.683
360.56	0.683
361.03	0.672
361.49	0.665
361.95	0.662
362.42	0.660
362.88	0.653
363.34	0.647
363.81	0.645
364.27	0.641
364.73	0.638
365.20	0.636
365.66	0.633
366.12	0.625
366.59	0.621
367.05	0.618
367.51	0.621
367.98	0.615
368.44	0.614
368.90	0.613
369.37	0.608
369.83	0.601
370.29	0.607
370.76	0.602
371.22	0.599
371.68	0.596
372.15	0.595
372.61	0.589
373.07	0.591
373.54	0.585
374.00	0.585
374.46	0.584
374.92	0.585
375.39	0.581
375.85	0.578
376.31	0.575
376.78	0.577
377.24	0.576
377.70	0.570
378.16	0.567
378.63	0.567
379.09	0.567
379.55	0.564
380.01	0.564
380.48	0.556
380.94	0.559
381.40	0.557
381.87	0.555
382.33	0.553
382.79	0.549
383.25	0.553
383.72	0.549
384.18	0.545
384.64	0.546
385.10	0.544
385.56	0.543
386.03	0.542
386.49	0.536
386.95	0.538
387.41	0.534
387.88	0.535
388.34	0.530
388.80	0.529
389.26	0.529
389.72	0.528
390.19	0.527
390.65	0.525
391.11	0.521
391.57	0.520
392.04	0.520
392.50	0.518
392.96	0.515
393.42	0.517
393.88	0.517
394.34	0.513
394.81	0.513
395.27	0.510
395.73	0.506
396.19	0.508
396.65	0.504
397.12	0.500
397.58	0.504
398.04	0.501
398.50	0.501
398.96	0.501
399.42	0.500
399.89	0.497
400.35	0.496
400.81	0.489
401.27	0.495
401.73	0.490
402.19	0.489
402.65	0.487
403.12	0.484
403.58	0.483
404.04	0.484
404.50	0.482
404.96	0.478
405.42	0.481
405.88	0.479
406.34	0.479
406.81	0.477
407.27	0.475
407.73	0.472
408.19	0.469
408.65	0.469
409.11	0.471
409.57	0.468
410.03	0.466
410.49	0.469
410.96	0.466
411.42	0.466
411.88	0.460
412.34	0.460
412.80	0.460
413.26	0.454
413.72	0.459
414.18	0.454
414.64	0.453
415.10	0.456
415.56	0.454
416.02	0.453
416.48	0.450
416.95	0.447
417.41	0.450
417.87	0.446
418.33	0.447
418.79	0.443
419.25	0.441
419.71	0.442
420.17	0.441
420.63	0.443
421.09	0.436
421.55	0.436
422.01	0.437
422.47	0.436
422.93	0.436
423.39	0.436
423.85	0.432
424.31	0.432
424.77	0.428
425.23	0.430
425.69	0.431
426.15	0.429
426.61	0.429
427.07	0.424
427.53	0.423
427.99	0.419
428.45	0.427
428.91	0.423
429.37	0.419
429.83	0.417
430.29	0.418
430.75	0.422
431.21	0.418
431.67	0.417
432.13	0.417
432.59	0.410
433.05	0.414
433.51	0.411
433.97	0.412
434.43	0.410
434.89	0.410
435.35	0.411
435.81	0.404
436.27	0.408
436.73	0.406
437.19	0.403
437.65	0.405
438.11	0.401
438.57	0.401
439.03	0.400
439.48	0.400
439.94	0.395
440.40	0.396
440.86	0.397
441.32	0.395
441.78	0.394
442.24	0.395
442.70	0.391
443.16	0.389
443.62	0.391
444.08	0.393
444.54	0.391
444.99	0.386
445.45	0.386
445.91	0.389
446.37	0.387
446.83	0.385
447.29	0.384
447.75	0.384
448.21	0.386
448.67	0.380
449.12	0.383
449.58	0.380
450.04	0.378
450.50	0.375
450.96	0.381
451.42	0.375
451.88	0.372
452.34	0.377
452.79	0.375
453.25	0.377
453.71	0.370
454.17	0.372
454.63	0.372
455.09	0.369
455.55	0.372
456.00	0.367
456.46	0.365
456.92	0.366
457.38	0.364
457.84	0.362
458.30	0.363
458.75	0.362
459.21	0.359
459.67	0.363
460.13	0.358
460.59	0.356
461.04	0.357
461.50	0.360
461.96	0.357
462.42	0.354
462.88	0.353
463.33	0.358
463.79	0.352
464.25	0.352
464.71	0.353
465.17	0.352
465.62	0.353
466.08	0.351
466.54	0.351
467.00	0.350
467.46	0.351
467.91	0.348
468.37	0.349
468.83	0.349
469.29	0.345
469.74	0.345
470.20	0.348
470.66	0.344
471.12	0.338
471.57	0.343
472.03	0.341
472.49	0.339
472.95	0.340
473.40	0.340
473.86	0.337
474.32	0.333
474.78	0.339
475.23	0.335
475.69	0.339
476.15	0.336
476.60	0.336
477.06	0.333
477.52	0.334
477.98	0.330
478.43	0.331
478.89	0.331
479.35	0.330
479.80	0.330
480.26	0.329
480.72	0.330
481.18	0.329
481.63	0.325
482.09	0.327
482.55	0.326
483.00	0.325
483.46	0.324
483.92	0.321
484.37	0.322
484.83	0.319
485.29	0.319
485.74	0.321
486.20	0.321
486.66	0.319
487.11	0.320
487.57	0.319
488.03	0.319
488.48	0.317
488.94	0.315
489.40	0.316
489.85	0.318
490.31	0.316
490.77	0.313
491.22	0.312
491.68	0.314
492.13	0.313
492.59	0.310
493.05	0.311
493.50	0.310
493.96	0.309
494.42	0.308
494.87	0.307
495.33	0.305
495.78	0.309
496.24	0.309
496.70	0.305
497.15	0.307
497.61	0.306
498.06	0.304
498.52	0.305
498.98	0.305
499.43	0.303
499.89	0.303
500.34	0.301
500.80	0.303
501.25	0.303
501.71	0.300
502.17	0.300
502.62	0.301
503.08	0.300
503.53	0.298
503.99	0.297
504.44	0.298
504.90	0.296
505.36	0.295
505.81	0.294
506.27	0.297
506.72	0.296
507.18	0.296
507.63	0.293
508.09	0.296
508.54	0.291
509.00	0.291
509.45	0.292
509.91	0.291
510.36	0.288
510.82	0.289
511.27	0.290
511.73	0.289
512.19	0.286
512.64	0.288
513.10	0.288
513.55	0.286
514.01	0.286
514.46	0.283
514.92	0.285
515.37	0.282
515.83	0.284
516.28	0.281
516.73	0.283
517.19	0.281
517.64	0.277
518.10	0.280
518.55	0.277
519.01	0.278
519.46	0.279
519.92	0.280
520.37	0.276
520.83	0.275
521.28	0.277
521.74	0.279
522.19	0.279
522.65	0.275
523.10	0.275
523.55	0.275
524.01	0.277
524.46	0.273
524.92	0.274
525.37	0.273
525.83	0.271
526.28	0.272
526.73	0.274
527.19	0.273
527.64	0.274
528.10	0.270
528.55	0.270
529.01	0.270
529.46	0.268
529.91	0.265
530.37	0.267
530.82	0.264
531.28	0.265
531.73	0.264
532.18	0.264
532.64	0.266
533.09	0.262
533.54	0.262
534.00	0.260
534.45	0.266
534.91	0.263
535.36	0.264
535.81	0.263
536.27	0.261
536.72	0.262
537.17	0.260
537.63	0.261
538.08	0.257
538.54	0.261
538.99	0.258
539.44	0.259
539.90	0.258
540.35	0.256
540.80	0.256
541.26	0.256
541.71	0.255
542.16	0.256
542.62	0.255
543.07	0.254
543.52	0.254
543.98	0.254
544.43	0.252
544.88	0.251
545.34	0.255
545.79	0.253
546.24	0.250
546.69	0.251
547.15	0.249
547.60	0.250
548.05	0.250
548.51	0.249
548.96	0.251
549.41	0.249
549.86	0.248
550.32	0.249
550.77	0.249
551.22	0.247
551.68	0.246
552.13	0.245
552.58	0.243
553.03	0.245
553.49	0.245
553.94	0.246
554.39	0.244
554.84	0.248
555.30	0.247
555.75	0.244
556.20	0.243
556.65	0.240
557.11	0.242
557.56	0.241
558.01	0.243
558.46	0.243
558.92	0.237
559.37	0.240
559.82	0.242
560.27	0.241
560.72	0.239
561.18	0.240
561.63	0.239
562.08	0.236
562.53	0.237
562.99	0.238
563.44	0.237
563.89	0.234
564.34	0.238
564.79	0.236
565.25	0.233
565.70	0.232
566.15	0.232
566.60	0.231
567.05	0.232
567.50	0.234
567.96	0.234
568.41	0.231
568.86	0.230
569.31	0.230
569.76	0.231
570.21	0.229
570.67	0.230
571.12	0.230
571.57	0.229
572.02	0.227
572.47	0.226
572.92	0.225
573.37	0.228
573.83	0.225
574.28	0.227
574.73	0.224
575.18	0.225
575.63	0.225
576.08	0.225
576.53	0.224
576.98	0.225
577.44	0.221
577.89	0.223
578.34	0.221
578.79	0.222
579.24	0.222
579.69	0.222
580.14	0.219
580.59	0.220
581.04	0.219
581.49	0.220
581.95	0.217
582.40	0.218
582.85	0.217
583.30	0.218
583.75	0.217
584.20	0.217
584.65	0.216
585.10	0.216
585.55	0.217
586.00	0.216
586.45	0.215
586.90	0.217
587.35	0.215
587.80	0.215
588.25	0.213
588.71	0.216
589.16	0.212
589.61	0.212
590.06	0.214
590.51	0.215
590.96	0.211
591.41	0.211
591.86	0.211
592.31	0.212
592.76	0.212
593.21	0.213
593.66	0.213
594.11	0.212
594.56	0.209
595.01	0.210
595.46	0.210
595.91	0.210
596.36	0.210
596.81	0.210
597.26	0.208
597.71	0.208
598.16	0.206
598.61	0.207
599.06	0.208
599.51	0.206
599.96	0.208
600.41	0.208
600.86	0.207
601.31	0.207
601.76	0.206
602.21	0.207
602.65	0.207
603.10	0.204
603.55	0.206
604.00	0.205
604.45	0.204
604.90	0.204
605.35	0.202
605.80	0.204
606.25	0.205
606.70	0.202
607.15	0.201
607.60	0.201
608.05	0.200
608.50	0.201
608.95	0.200
609.39	0.202
609.84	0.202
610.29	0.202
610.74	0.199
611.19	0.197
611.64	0.200
612.09	0.200
612.54	0.198
612.99	0.199
613.44	0.197
613.88	0.200
614.33	0.197
614.78	0.195
615.23	0.195
615.68	0.196
616.13	0.197
616.58	0.194
617.03	0.196
617.47	0.196
617.92	0.194
618.37	0.195
618.82	0.195
619.27	0.194
619.72	0.194
620.17	0.193
620.61	0.193
621.06	0.193
621.51	0.192
621.96	0.192
622.41	0.192
622.86	0.190
623.30	0.190
623.75	0.191
624.20	0.191
624.65	0.192
625.10	0.191
625.54	0.191
625.99	0.192
626.44	0.189
626.89	0.189
627.34	0.190
627.78	0.190
628.23	0.188
628.68	0.188
629.13	0.187
629.58	0.188
630.02	0.187
630.47	0.188
630.92	0.187
631.37	0.185
631.81	0.187
632.26	0.186
632.71	0.187
633.16	0.184
633.61	0.187
634.05	0.183
634.50	0.183
634.95	0.184
635.40	0.184
635.84	0.186
636.29	0.185
636.74	0.184
637.18	0.183
637.63	0.185
638.08	0.181
638.53	0.184
638.97	0.181
639.42	0.182
639.87	0.183
640.32	0.180
640.76	0.184
641.21	0.181
641.66	0.182
642.10	0.182
642.55	0.180
643.00	0.180
643.44	0.182
643.89	0.182
644.34	0.179
644.79	0.179
645.23	0.179
645.68	0.178
646.13	0.177
646.57	0.178
647.02	0.177
647.47	0.181
647.91	0.179
648.36	0.178
648.81	0.179
649.25	0.177
649.70	0.176
650.15	0.175
650.59	0.177
651.04	0.177
651.48	0.179
651.93	0.176
652.38	0.173
652.82	0.175
653.27	0.176
653.72	0.175
654.16	0.175
654.61	0.175
655.06	0.174
655.50	0.173
655.95	0.171
656.39	0.166
656.84	0.169
657.29	0.175
657.73	0.173
658.18	0.173
658.62	0.172
659.07	0.172
659.52	0.173
659.96	0.172
660.41	0.173
660.85	0.171
661.30	0.171
661.74	0.172
662.19	0.170
662.64	0.171
663.08	0.171
663.53	0.171
663.97	0.170
664.42	0.171
664.86	0.170
665.31	0.171
665.75	0.168
666.20	0.169
666.65	0.170
667.09	0.169
667.54	0.169
667.98	0.167
668.43	0.167
668.87	0.167
669.32	0.168
669.76	0.167
670.21	0.168
670.65	0.164
671.10	0.167
671.54	0.167
671.99	0.166
672.43	0.165
672.88	0.166
673.32	0.166
673.77	0.165
674.21	0.164
674.66	0.164
675.10	0.165
675.55	0.161
675.99	0.164
676.44	0.164
676.88	0.165
677.33	0.166
677.77	0.164
678.22	0.163
678.66	0.164
679.11	0.163
679.55	0.164
679.99	0.161
680.44	0.164
680.88	0.164
681.33	0.161
681.77	0.161
682.22	0.162
682.66	0.162
683.11	0.163
683.55	0.161
683.99	0.161
684.44	0.161
684.88	0.161
685.33	0.160
685.77	0.159
686.21	0.160
686.66	0.160
687.10	0.160
687.55	0.159
687.99	0.162
688.44	0.162
688.88	0.159
689.32	0.161
689.77	0.159
690.21	0.158
690.65	0.158
691.10	0.159
691.54	0.158
691.99	0.159
692.43	0.157
692.87	0.157
693.32	0.159
693.76	0.158
694.20	0.159
694.65	0.156
695.09	0.157
695.53	0.156
695.98	0.158
696.42	0.159
696.86	0.156
697.31	0.153
697.75	0.155
698.19	0.155
698.64	0.156
699.08	0.156
699.52	0.154
699.97	0.158
700.41	0.154
700.85	0.156
701.30	0.154
701.74	0.155
702.18	0.155
702.63	0.155
703.07	0.152
703.51	0.155
703.96	0.154
704.40	0.153
704.84	0.155
705.28	0.151
705.73	0.153
706.17	0.153
706.61	0.151
707.06	0.152
707.50	0.151
707.94	0.152
708.38	0.152
708.83	0.154
709.27	0.153
709.71	0.153
710.15	0.151
710.60	0.151
711.04	0.153
711.48	0.153
711.92	0.153
712.37	0.153
712.81	0.153
713.25	0.150
713.69	0.151
714.13	0.152
714.58	0.152
715.02	0.149
715.46	0.150
715.90	0.149
716.35	0.149
716.79	0.151
717.23	0.150
717.67	0.150
718.11	0.152
718.56	0.150
719.00	0.151
719.44	0.150
719.88	0.148
720.32	0.148
720.76	0.150
721.21	0.149
721.65	0.150
722.09	0.150
722.53	0.148
722.97	0.151
723.41	0.150
723.86	0.149
724.30	0.150
724.74	0.151
725.18	0.148
725.62	0.148
726.06	0.149
726.50	0.149
726.95	0.147
727.39	0.150
727.83	0.146
728.27	0.149
728.71	0.148
729.15	0.151
729.59	0.149
730.03	0.146
730.48	0.149
730.92	0.145
731.36	0.150
731.80	0.152
732.24	0.150
732.68	0.150
733.12	0.147
733.56	0.150
734.00	0.147
734.44	0.148
734.89	0.149
735.33	0.150
735.77	0.152
736.21	0.150
736.65	0.149
737.09	0.150
737.53	0.150
737.97	0.149
738.41	0.148
738.85	0.152
739.29	0.150
739.73	0.147
740.17	0.149
740.61	0.149
741.05	0.149
741.49	0.148
741.93	0.147
742.37	0.145
742.81	0.149
743.26	0.148
743.70	0.147
744.14	0.148
744.58	0.149
745.02	0.148
745.46	0.149
745.90	0.149
746.34	0.149
746.78	0.147
747.22	0.147
747.66	0.148
748.10	0.148
748.54	0.145
748.98	0.146
749.42	0.148
749.86	0.148
750.29	0.146
750.73	0.145
751.17	0.145
751.61	0.142
752.05	0.149
752.49	0.142
752.93	0.145
753.37	0.146
753.81	0.144
754.25	0.144
754.69	0.141
755.13	0.144
755.57	0.144
756.01	0.146
756.45	0.144
756.89	0.144
757.33	0.145
757.77	0.141
758.21	0.143
758.64	0.139
759.08	0.141
759.52	0.144
759.96	0.145
760.40	0.142
760.84	0.141
761.28	0.144
761.72	0.144
762.16	0.144
762.60	0.141
763.03	0.140
763.47	0.139
763.91	0.140
764.35	0.141
764.79	0.140
765.23	0.138
765.67	0.139
766.11	0.137
766.54	0.135
766.98	0.140
767.42	0.138
767.86	0.137
768.30	0.141
768.74	0.142
769.17	0.140
769.61	0.142
770.05	0.138
770.49	0.140
770.93	0.141
771.37	0.138
771.80	0.140
772.24	0.137
772.68	0.139
773.12	0.136
773.56	0.137
774.00	0.136
774.43	0.138
774.87	0.138
775.31	0.137
775.75	0.138
776.19	0.138
776.62	0.136
777.06	0.136
777.50	0.137
777.94	0.139
778.37	0.139
778.81	0.137
779.25	0.139
779.69	0.138
780.13	0.138
780.56	0.134
781.00	0.136
781.44	0.140
781.88	0.138
782.31	0.139
782.75	0.138
783.19	0.139
783.63	0.136
784.06	0.136
784.50	0.135
784.94	0.136
785.37	0.138
785.81	0.139
786.25	0.137
786.69	0.132
787.12	0.135
787.56	0.134
788.00	0.135
788.43	0.136
788.87	0.134
789.31	0.133
789.75	0.135
790.18	0.135
790.62	0.134
791.06	0.134
791.49	0.133
791.93	0.133
792.37	0.137
792.80	0.135
793.24	0.131
793.68	0.133
794.11	0.135
794.55	0.135
794.99	0.137
795.42	0.131
795.86	0.136
796.30	0.131
796.73	0.134
797.17	0.132
797.61	0.132
798.04	0.134
798.48	0.137
798.91	0.132
799.35	0.129
799.79	0.137
800.22	0.133
800.66	0.132
801.10	0.134
801.53	0.131
801.97	0.138
802.40	0.132
802.84	0.131
803.28	0.131
803.71	0.133
804.15	0.128
804.58	0.131
805.02	0.133
805.46	0.133
805.89	0.132
806.33	0.130
806.76	0.131
807.20	0.132
807.63	0.131
808.07	0.135
808.51	0.128
808.94	0.126
809.38	0.128
809.81	0.129
810.25	0.129
810.68	0.129
811.12	0.132
811.55	0.131
811.99	0.130
812.42	0.132
812.86	0.127
813.29	0.131
813.73	0.130
814.17	0.130
814.60	0.128
815.04	0.130
815.47	0.126
815.91	0.128
816.34	0.131
816.78	0.129
817.21	0.133
817.65	0.135
818.08	0.127
818.52	0.132
818.95	0.131
819.39	0.129
819.82	0.130
820.25	0.131
820.69	0.129
821.12	0.131
821.56	0.131
821.99	0.130
822.43	0.130
822.86	0.131
823.30	0.128
823.73	0.130
824.17	0.128
824.60	0.125
825.04	0.132
825.47	0.127
825.90	0.128
826.34	0.130
826.77	0.131
827.21	0.132
827.64	0.131
828.08	0.123
828.51	0.130
828.94	0.131
829.38	0.129
829.81	0.133
830.25	0.131
830.68	0.130
831.11	0.129
831.55	0.128
831.98	0.134
832.42	0.130
832.85	0.134
833.28	0.134
833.72	0.134
834.15	0.131
834.58	0.135
835.02	0.129
835.45	0.131
835.88	0.133
836.32	0.135
836.75	0.136
837.19	0.138
837.62	0.133
838.05	0.136
838.49	0.133
838.92	0.132
839.35	0.134
839.79	0.132
840.22	0.135
840.65	0.130
841.09	0.134
841.52	0.132
841.95	0.135
842.39	0.133
842.82	0.129
843.25	0.130
843.68	0.132
844.12	0.130
844.55	0.131
844.98	0.133
845.42	0.134
845.85	0.126
846.28	0.132
846.71	0.129
847.15	0.129
847.58	0.136
848.01	0.141
848.45	0.139
848.88	0.136
849.31	0.130
849.74	0.133
850.18	0.134
850.61	0.136
851.04	0.136
851.47	0.134
851.91	0.134
852.34	0.131
852.77	0.134
853.20	0.130
853.64	0.131
854.07	0.138
854.50	0.132
854.93	0.135
855.36	0.135
855.80	0.135
856.23	0.134
856.66	0.133
857.09	0.129
857.52	0.134
857.96	0.131
858.39	0.136
858.82	0.128
859.25	0.139
859.68	0.135
860.12	0.128
860.55	0.131
860.98	0.130
861.41	0.128
861.84	0.136
862.27	0.133
862.71	0.136
863.14	0.133
863.57	0.132
864.00	0.128
864.43	0.140
864.86	0.131
865.30	0.139
865.73	0.134
866.16	0.130
866.59	0.138
867.02	0.130
867.45	0.132
867.88	0.136
868.31	0.132
868.75	0.134
869.18	0.138
869.61	0.138
870.04	0.135
870.47	0.140
870.90	0.134
871.33	0.135
871.76	0.141
872.19	0.139
872.62	0.133
873.06	0.124
873.49	0.136
873.92	0.130
874.35	0.138
874.78	0.137
875.21	0.136
875.64	0.131
876.07	0.136
876.50	0.135
876.93	0.132
877.36	0.135
877.79	0.136
878.22	0.132
878.65	0.137
879.08	0.137
879.51	0.141
879.94	0.136
880.37	0.140
880.80	0.142
881.23	0.136
881.67	0.138
882.10	0.137
882.53	0.132
882.96	0.139
883.39	0.139
883.82	0.135
884.25	0.133
884.68	0.138
885.11	0.138
885.54	0.140
885.97	0.140
886.39	0.133
886.82	0.140
887.25	0.136
887.68	0.135
888.11	0.136
888.54	0.132
888.97	0.140
889.40	0.140
889.83	0.133
890.26	0.136
890.69	0.135
891.12	0.136
891.55	0.134
891.98	0.139
892.41	0.132
892.84	0.138
893.27	0.140
893.70	0.137
894.13	0.139
894.56	0.140
894.98	0.141
895.41	0.143
895.84	0.139
896.27	0.138
896.70	0.139
897.13	0.142
897.56	0.135
897.99	0.138
898.42	0.137
898.85	0.143
899.27	0.140
899.70	0.142
900.13	0.140
900.56	0.138
900.99	0.139
901.42	0.142
901.85	0.135
902.28	0.141
902.70	0.138
903.13	0.140
903.56	0.140
903.99	0.139
904.42	0.141
904.85	0.144
905.27	0.138
905.70	0.136
906.13	0.139
906.56	0.136
906.99	0.140
907.42	0.137
907.84	0.137
908.27	0.137
908.70	0.142
909.13	0.136
909.56	0.137
909.98	0.138
910.41	0.136
910.84	0.142
911.27	0.142
911.70	0.134
912.12	0.133
912.55	0.137
912.98	0.142
913.41	0.138
913.84	0.136
914.26	0.140
914.69	0.137
915.12	0.143
915.55	0.137
915.97	0.140
916.40	0.138
916.83	0.138
917.26	0.138
917.68	0.142
918.11	0.140
918.54	0.137
918.97	0.140
919.39	0.140
919.82	0.138
920.25	0.138
920.67	0.138
921.10	0.144
921.53	0.142
921.96	0.142
922.38	0.143
922.81	0.139
923.24	0.148
923.66	0.139
924.09	0.143
924.52	0.146
924.94	0.145
925.37	0.149
925.80	0.148
926.22	0.142
926.65	0.139
927.08	0.147
927.50	0.143
927.93	0.149
928.36	0.142
928.78	0.146
929.21	0.149
929.64	0.148
930.06	0.153
930.49	0.154
930.92	0.156
931.34	0.153
931.77	0.156
932.20	0.155
932.62	0.156
933.05	0.154
933.47	0.156
933.90	0.156
934.33	0.155
934.75	0.158
935.18	0.158
935.61	0.161
936.03	0.157
936.46	0.166
936.88	0.166
937.31	0.167
937.73	0.167
938.16	0.165
938.59	0.176
939.01	0.179
939.44	0.176
939.86	0.177
940.29	0.180
940.71	0.180
941.14	0.183
941.57	0.188
941.99	0.177
942.42	0.189
942.84	0.191
943.27	0.191
943.69	0.193
944.12	0.193
944.54	0.202
944.97	0.194
945.39	0.193
945.82	0.198
946.24	0.211
946.67	0.194
947.09	0.208
947.52	0.202
947.94	0.211
948.37	0.217
948.79	0.214
949.22	0.216
949.64	0.213
950.07	0.227
950.49	0.221
950.92	0.224
951.34	0.222
951.77	0.231
952.19	0.226
952.62	0.239
953.04	0.238
953.47	0.236
953.89	0.247
954.32	0.248
954.74	0.238
955.17	0.243
955.59	0.255
956.01	0.255
956.44	0.258
956.86	0.260
957.29	0.265
957.71	0.274
958.14	0.270
958.56	0.270
958.98	0.274
959.41	0.267
959.83	0.272
960.26	0.276
960.68	0.279
961.10	0.279
961.53	0.284
961.95	0.279
962.38	0.281
962.80	0.283
963.22	0.292
963.65	0.286
964.07	0.282
964.50	0.291
964.92	0.288
965.34	0.286
965.77	0.286
966.19	0.291
966.61	0.289
967.04	0.293
967.46	0.290
967.88	0.299
968.31	0.294
968.73	0.292
969.15	0.287
969.58	0.290
970.00	0.292
970.42	0.290
970.85	0.288
971.27	0.294
971.69	0.296
972.12	0.300
972.54	0.300
972.96	0.295
973.39	0.302
973.81	0.300
974.23	0.295
974.65	0.292
975.08	0.298
975.50	0.303
975.92	0.298
976.35	0.300
976.77	0.295
977.19	0.302
977.61	0.295
978.04	0.294
978.46	0.300
978.88	0.296
979.30	0.300
979.73	0.294
980.15	0.299
980.57	0.299
980.99	0.301
981.42	0.296
981.84	0.300
982.26	0.296
982.68	0.299
983.11	0.296
983.53	0.295
983.95	0.301
984.37	0.297
984.79	0.296
985.22	0.292
985.64	0.292
986.06	0.293
986.48	0.294
986.90	0.292
987.33	0.291
987.75	0.290
988.17	0.293
988.59	0.284
989.01	0.283
989.43	0.283
989.86	0.286
990.28	0.300
990.70	0.287
991.12	0.285
991.54	0.289
991.96	0.282
992.39	0.289
992.81	0.282
993.23	0.284
993.65	0.281
994.07	0.280
994.49	0.276
994.91	0.280
995.34	0.276
995.76	0.281
996.18	0.280
996.60	0.277
997.02	0.276
997.44	0.276
997.86	0.276
998.28	0.275
998.70	0.280
999.12	0.271
999.55	0.272
999.97	0.273
1000.39	0.273
1000.81	0.269
1001.23	0.267
1001.65	0.272
1002.07	0.270
1002.49	0.271
1002.91	0.269
1003.33	0.268
1003.75	0.263
1004.17	0.268
1004.59	0.265
1005.01	0.258
1005.43	0.267
1005.85	0.264
1006.28	0.261
1006.70	0.259
1007.12	0.256
1007.54	0.264
1007.96	0.256
1008.38	0.253
1008.80	0.254
1009.22	0.259
1009.64	0.253
1010.06	0.255
1010.48	0.256
1010.90	0.243
1011.32	0.250
1011.74	0.240
1012.16	0.251
1012.58	0.253
1013.00	0.240
1013.42	0.237
1013.84	0.238
1014.26	0.235
1014.67	0.241
1015.09	0.242
1015.51	0.240
1015.93	0.251
1016.35	0.232
1016.77	0.238
1017.19	0.234
1017.61	0.237
1018.03	0.233
1018.45	0.235
1018.87	0.234
1019.29	0.245
1019.71	0.231
1020.13	0.238
1020.55	0.236
1020.97	0.228
1021.38	0.226
1021.80	0.221
1022.22	0.228
1022.64	0.227
1023.06	0.220
1023.48	0.213
1023.90	0.222
1024.32	0.215
1024.74	0.219
1025.15	0.226
1025.57	0.214
1025.99	0.210
1026.41	0.220
1026.83	0.217
1027.25	0.218
1027.67	0.236
1028.08	0.208
1028.50	0.227
1028.92	0.209
1029.34	0.211
1029.76	0.226
1030.18	0.210
1030.60	0.222
1031.01	0.219
1031.43	0.212
1031.85	0.218
1032.27	0.212
1032.69	0.194
1033.10	0.214
1033.52	0.200
1033.94	0.205
1034.36	0.208
1034.78	0.211
1035.19	0.208
1035.61	0.203
1036.03	0.207
1036.45	0.194
1036.87	0.196
1037.28	0.203
1037.70	0.201
1038.12	0.199
1038.54	0.185
1038.95	0.195
1039.37	0.194
1039.79	0.191
1040.21	0.198
1040.62	0.208
1041.04	0.208
1041.46	0.185
1041.88	0.173
1042.29	0.208
1042.71	0.198
1043.13	0.200
1043.55	0.191
1043.96	0.197
1044.38	0.195
1044.80	0.192
1045.21	0.177
1045.63	0.187
1046.05	0.179
1046.47	0.189
1046.88	0.195
1047.30	0.196
1047.72	0.174
1048.13	0.180
1048.55	0.193
1048.97	0.173
1049.38	0.216
1049.80	0.193
1050.22	0.205
1050.63	0.180
1051.05	0.180
1051.47	0.166
1051.88	0.192
1052.30	0.185
1052.72	0.190
1053.13	0.200
1053.55	0.214
1053.97	0.194
1054.38	0.195
1054.80	0.223
1055.21	0.227
1055.63	0.196
1056.05	0.177
1056.46	0.202
1056.88	0.186
1057.29	0.186
1057.71	0.210
1058.13	0.219
1058.54	0.208
1058.96	0.176
1059.37	0.184
1059.79	0.182
1060.21	0.197
1060.62	0.168
1061.04	0.207
1061.45	0.204
1061.87	0.195
1062.28	0.223
1062.70	0.202
1063.12	0.218
1063.53	0.203
1063.95	0.215
1064.36	0.255
1064.78	0.222
1065.19	0.239
1065.61	0.216
1066.02	0.215
1066.44	0.246
1066.85	0.205
1067.27	0.249
1067.68	0.225
1068.10	0.186
1068.51	0.249
1068.93	0.301
1069.35	0.277
1069.76	0.297
1070.17	0.310
1070.59	0.219
1071.00	0.311
1071.42	0.379
1071.83	0.395
1072.25	0.304
1072.66	0.283
1073.08	0.331
1073.49	0.440
1073.91	0.261
1074.32	0.355
1074.74	0.369
1075.15	0.343
1075.57	0.425
1075.98	0.429
1076.40	0.237
1076.81	0.538
1077.22	0.426
1077.64	0.389
1078.05	0.709
1078.47	0.541
1078.88	0.445
1079.30	0.679
1079.71	0.749
1080.12	0.893
1080.54	-0.000
1080.95	0.702
1081.37	-0.000
1081.78	0.446
1082.19	0.587
1082.61	-0.000
1083.02	-0.000
1083.44	0.613
1083.85	-0.000
1084.26	-0.000
1084.68	-0.000
1085.09	-0.000
1085.50	-0.000
1085.92	-0.000
1086.33	-0.000
1086.74	0.671
1087.16	-0.000
1087.57	-0.000
1087.98	0.925
1088.40	-0.000
1088.81	-0.000
1089.22	-0.000
1089.64	-0.000
1090.05	0.737
1090.46	-0.000
1090.88	-0.000
1091.29	-0.000
1091.70	-0.000
1092.12	-0.000
1092.53	-0.000
1092.94	-0.000
1093.36	1.355
1093.77	-0.000
1094.18	-0.000
1094.59	-0.000
1095.01	-0.000
1095.42	-0.000
1095.83	-0.000
1096.25	-0.000
1096.66	-0.000
1097.07	-0.000
1097.48	-0.000
1097.90	-0.000
1098.31	-0.000
1098.72	-0.000
1099.13	-0.000
>>>>>End Processed Spectral Data<<<<<
