SpectraSuite Data File
++++++++++++++++++++++++++++++++++++
Date: Sun Apr 24 15:44:44 CEST 2016
User: spectrasuite
Dark Spectrum Present: Yes
Reference Spectrum Present: Yes
Number of Sampled Component Spectra: 1
Spectrometers: HR+C0708
Integration Time (usec): 1000 (HR+C0708)
Spectra Averaged: 10 (HR+C0708)
Boxcar Smoothing: 0 (HR+C0708)
Correct for Electrical Dark: No (HR+C0708)
Strobe/Lamp Enabled: No (HR+C0708)
Correct for Detector Non-linearity: No (HR+C0708)
Correct for Stray Light: No (HR+C0708)
Number of Pixels in Processed Spectrum: 2048
>>>>>Begin Processed Spectral Data<<<<<
188.76	-0.000
189.23	-0.000
189.70	-0.000
190.17	-0.000
190.64	-0.000
191.12	-0.000
191.59	-0.000
192.06	-0.000
192.53	-0.000
193.01	-0.000
193.48	-0.000
193.95	-0.000
194.42	-0.000
194.90	1.035
195.37	-0.000
195.84	-0.000
196.31	-0.000
196.78	-0.000
197.26	-0.000
197.73	-0.000
198.20	-0.000
198.67	-0.000
199.14	-0.000
199.62	-0.000
200.09	-0.000
200.56	-0.000
201.03	-0.000
201.50	1.312
201.97	-0.000
202.45	-0.000
202.92	1.237
203.39	1.395
203.86	-0.000
204.33	-0.000
204.80	-0.000
205.28	1.489
205.75	-0.000
206.22	-0.000
206.69	1.557
207.16	-0.000
207.63	1.288
208.11	0.793
208.58	-0.000
209.05	1.050
209.52	-0.000
209.99	-0.000
210.46	-0.000
210.93	-0.000
211.41	-0.000
211.88	1.923
212.35	-0.000
212.82	-0.000
213.29	-0.000
213.76	-0.000
214.23	-0.000
214.70	-0.000
215.18	-0.000
215.65	0.868
216.12	1.467
216.59	2.022
217.06	-0.000
217.53	-0.000
218.00	-0.000
218.47	1.583
218.94	1.827
219.41	-0.000
219.89	-0.000
220.36	-0.000
220.83	0.924
221.30	-0.000
221.77	-0.000
222.24	-0.000
222.71	-0.000
223.18	-0.000
223.65	1.930
224.12	-0.000
224.59	-0.000
225.06	-0.000
225.54	-0.000
226.01	1.216
226.48	-0.000
226.95	-0.000
227.42	2.076
227.89	-0.000
228.36	1.513
228.83	-0.000
229.30	2.091
229.77	2.619
230.24	1.686
230.71	2.713
231.18	-0.000
231.65	2.320
232.12	2.018
232.59	-0.000
233.06	-0.000
233.53	-0.000
234.00	2.089
234.47	-0.000
234.94	-0.000
235.41	2.507
235.88	-0.000
236.35	-0.000
236.82	-0.000
237.29	2.797
237.76	-0.000
238.23	-0.000
238.70	3.627
239.17	2.626
239.64	-0.000
240.11	-0.000
240.58	3.186
241.05	-0.000
241.52	2.943
241.99	-0.000
242.46	2.936
242.93	3.389
243.40	-0.000
243.87	4.123
244.34	2.488
244.81	3.137
245.28	-0.000
245.75	-0.000
246.22	-0.000
246.69	3.279
247.16	3.988
247.63	3.646
248.10	3.125
248.57	4.000
249.04	-0.000
249.51	3.751
249.98	3.536
250.45	-0.000
250.92	3.386
251.39	-0.000
251.85	-0.000
252.32	-0.000
252.79	-0.000
253.26	3.462
253.73	-0.000
254.20	-0.000
254.67	3.347
255.14	-0.000
255.61	-0.000
256.08	-0.000
256.55	-0.000
257.02	3.365
257.49	-0.000
257.95	3.453
258.42	3.148
258.89	3.266
259.36	3.071
259.83	-0.000
260.30	-0.000
260.77	-0.000
261.24	3.694
261.71	4.355
262.17	-0.000
262.64	2.847
263.11	3.097
263.58	3.399
264.05	3.490
264.52	3.306
264.99	2.835
265.46	3.129
265.92	3.102
266.39	2.783
266.86	3.397
267.33	3.569
267.80	2.843
268.27	3.047
268.74	3.275
269.20	3.276
269.67	2.951
270.14	2.690
270.61	2.733
271.08	2.984
271.55	2.752
272.01	2.730
272.48	2.804
272.95	2.748
273.42	2.575
273.89	2.765
274.36	2.930
274.82	2.629
275.29	2.541
275.76	2.597
276.23	2.712
276.70	2.499
277.16	2.543
277.63	2.586
278.10	2.528
278.57	2.498
279.04	2.490
279.50	2.550
279.97	2.517
280.44	2.306
280.91	2.364
281.38	2.368
281.84	2.408
282.31	2.434
282.78	2.659
283.25	2.385
283.72	2.289
284.18	2.368
284.65	2.298
285.12	2.253
285.59	2.279
286.05	2.289
286.52	2.299
286.99	2.248
287.46	2.271
287.92	2.293
288.39	2.251
288.86	2.276
289.33	2.233
289.79	2.239
290.26	2.195
290.73	2.201
291.20	2.197
291.66	2.209
292.13	2.163
292.60	2.149
293.07	2.166
293.53	2.075
294.00	2.123
294.47	2.133
294.93	2.104
295.40	2.100
295.87	2.064
296.34	2.131
296.80	2.043
297.27	2.083
297.74	2.070
298.20	2.102
298.67	2.022
299.14	2.075
299.60	2.082
300.07	2.065
300.54	1.998
301.01	1.973
301.47	1.980
301.94	1.993
302.41	1.968
302.87	2.020
303.34	1.997
303.81	1.936
304.27	1.956
304.74	1.967
305.21	1.923
305.67	1.928
306.14	1.918
306.61	1.935
307.07	1.931
307.54	1.899
308.01	1.870
308.47	1.863
308.94	1.899
309.40	1.936
309.87	1.879
310.34	1.860
310.80	1.869
311.27	1.874
311.74	1.873
312.20	1.837
312.67	1.840
313.13	1.834
313.60	1.838
314.07	1.837
314.53	1.779
315.00	1.790
315.47	1.821
315.93	1.807
316.40	1.794
316.86	1.782
317.33	1.775
317.80	1.764
318.26	1.775
318.73	1.776
319.19	1.769
319.66	1.747
320.13	1.737
320.59	1.739
321.06	1.737
321.52	1.739
321.99	1.720
322.45	1.714
322.92	1.689
323.39	1.693
323.85	1.691
324.32	1.683
324.78	1.678
325.25	1.689
325.71	1.643
326.18	1.637
326.64	1.679
327.11	1.657
327.58	1.615
328.04	1.627
328.51	1.638
328.97	1.612
329.44	1.592
329.90	1.596
330.37	1.591
330.83	1.566
331.30	1.582
331.76	1.567
332.23	1.548
332.69	1.522
333.16	1.516
333.62	1.511
334.09	1.502
334.56	1.485
335.02	1.472
335.49	1.464
335.95	1.432
336.42	1.433
336.88	1.416
337.35	1.409
337.81	1.389
338.28	1.366
338.74	1.373
339.20	1.352
339.67	1.323
340.13	1.309
340.60	1.297
341.06	1.252
341.53	1.250
341.99	1.245
342.46	1.218
342.92	1.192
343.39	1.180
343.85	1.155
344.32	1.146
344.78	1.132
345.25	1.123
345.71	1.103
346.17	1.083
346.64	1.065
347.10	1.041
347.57	1.017
348.03	0.996
348.50	0.975
348.96	0.961
349.43	0.942
349.89	0.922
350.35	0.916
350.82	0.906
351.28	0.882
351.75	0.865
352.21	0.856
352.67	0.839
353.14	0.825
353.60	0.814
354.07	0.798
354.53	0.783
355.00	0.784
355.46	0.770
355.92	0.751
356.39	0.739
356.85	0.739
357.31	0.725
357.78	0.711
358.24	0.705
358.71	0.700
359.17	0.694
359.63	0.682
360.10	0.678
360.56	0.671
361.03	0.665
361.49	0.659
361.95	0.657
362.42	0.654
362.88	0.649
363.34	0.642
363.81	0.636
364.27	0.633
364.73	0.632
365.20	0.629
365.66	0.626
366.12	0.618
366.59	0.614
367.05	0.617
367.51	0.614
367.98	0.606
368.44	0.603
368.90	0.603
369.37	0.602
369.83	0.598
370.29	0.596
370.76	0.596
371.22	0.594
371.68	0.589
372.15	0.589
372.61	0.587
373.07	0.584
373.54	0.581
374.00	0.581
374.46	0.578
374.92	0.577
375.39	0.573
375.85	0.571
376.31	0.574
376.78	0.566
377.24	0.566
377.70	0.568
378.16	0.562
378.63	0.564
379.09	0.563
379.55	0.555
380.01	0.556
380.48	0.553
380.94	0.551
381.40	0.552
381.87	0.548
382.33	0.549
382.79	0.547
383.25	0.542
383.72	0.549
384.18	0.541
384.64	0.540
385.10	0.538
385.56	0.539
386.03	0.537
386.49	0.531
386.95	0.529
387.41	0.527
387.88	0.524
388.34	0.525
388.80	0.523
389.26	0.524
389.72	0.525
390.19	0.517
390.65	0.520
391.11	0.516
391.57	0.516
392.04	0.516
392.50	0.512
392.96	0.510
393.42	0.509
393.88	0.512
394.34	0.510
394.81	0.502
395.27	0.503
395.73	0.502
396.19	0.503
396.65	0.501
397.12	0.498
397.58	0.496
398.04	0.491
398.50	0.491
398.96	0.492
399.42	0.494
399.89	0.492
400.35	0.492
400.81	0.488
401.27	0.487
401.73	0.485
402.19	0.485
402.65	0.480
403.12	0.479
403.58	0.481
404.04	0.475
404.50	0.479
404.96	0.474
405.42	0.476
405.88	0.479
406.34	0.468
406.81	0.472
407.27	0.473
407.73	0.471
408.19	0.467
408.65	0.464
409.11	0.465
409.57	0.465
410.03	0.458
410.49	0.463
410.96	0.462
411.42	0.459
411.88	0.457
412.34	0.456
412.80	0.457
413.26	0.449
413.72	0.450
414.18	0.450
414.64	0.450
415.10	0.450
415.56	0.452
416.02	0.449
416.48	0.448
416.95	0.442
417.41	0.444
417.87	0.444
418.33	0.440
418.79	0.441
419.25	0.439
419.71	0.437
420.17	0.437
420.63	0.437
421.09	0.435
421.55	0.428
422.01	0.435
422.47	0.431
422.93	0.429
423.39	0.431
423.85	0.429
424.31	0.430
424.77	0.425
425.23	0.426
425.69	0.425
426.15	0.422
426.61	0.422
427.07	0.419
427.53	0.421
427.99	0.415
428.45	0.415
428.91	0.414
429.37	0.414
429.83	0.412
430.29	0.412
430.75	0.417
431.21	0.412
431.67	0.413
432.13	0.415
432.59	0.407
433.05	0.411
433.51	0.405
433.97	0.408
434.43	0.406
434.89	0.408
435.35	0.406
435.81	0.401
436.27	0.401
436.73	0.402
437.19	0.401
437.65	0.401
438.11	0.398
438.57	0.400
439.03	0.398
439.48	0.394
439.94	0.394
440.40	0.394
440.86	0.396
441.32	0.388
441.78	0.396
442.24	0.388
442.70	0.389
443.16	0.385
443.62	0.382
444.08	0.389
444.54	0.384
444.99	0.383
445.45	0.385
445.91	0.382
446.37	0.382
446.83	0.379
447.29	0.380
447.75	0.382
448.21	0.379
448.67	0.376
449.12	0.376
449.58	0.376
450.04	0.370
450.50	0.374
450.96	0.374
451.42	0.370
451.88	0.367
452.34	0.371
452.79	0.372
453.25	0.373
453.71	0.365
454.17	0.369
454.63	0.366
455.09	0.365
455.55	0.367
456.00	0.361
456.46	0.363
456.92	0.364
457.38	0.364
457.84	0.360
458.30	0.352
458.75	0.359
459.21	0.354
459.67	0.359
460.13	0.355
460.59	0.355
461.04	0.356
461.50	0.353
461.96	0.352
462.42	0.355
462.88	0.352
463.33	0.351
463.79	0.350
464.25	0.352
464.71	0.349
465.17	0.349
465.62	0.347
466.08	0.346
466.54	0.348
467.00	0.346
467.46	0.347
467.91	0.345
468.37	0.345
468.83	0.345
469.29	0.345
469.74	0.341
470.20	0.342
470.66	0.341
471.12	0.338
471.57	0.338
472.03	0.341
472.49	0.338
472.95	0.338
473.40	0.338
473.86	0.335
474.32	0.334
474.78	0.336
475.23	0.333
475.69	0.333
476.15	0.333
476.60	0.333
477.06	0.329
477.52	0.333
477.98	0.328
478.43	0.329
478.89	0.327
479.35	0.325
479.80	0.328
480.26	0.326
480.72	0.325
481.18	0.324
481.63	0.322
482.09	0.323
482.55	0.325
483.00	0.321
483.46	0.318
483.92	0.320
484.37	0.322
484.83	0.317
485.29	0.318
485.74	0.319
486.20	0.316
486.66	0.317
487.11	0.315
487.57	0.315
488.03	0.315
488.48	0.313
488.94	0.312
489.40	0.314
489.85	0.314
490.31	0.314
490.77	0.310
491.22	0.311
491.68	0.311
492.13	0.312
492.59	0.309
493.05	0.308
493.50	0.306
493.96	0.306
494.42	0.307
494.87	0.306
495.33	0.306
495.78	0.308
496.24	0.305
496.70	0.301
497.15	0.303
497.61	0.303
498.06	0.301
498.52	0.300
498.98	0.299
499.43	0.301
499.89	0.299
500.34	0.298
500.80	0.298
501.25	0.299
501.71	0.295
502.17	0.297
502.62	0.298
503.08	0.296
503.53	0.294
503.99	0.293
504.44	0.293
504.90	0.291
505.36	0.292
505.81	0.293
506.27	0.293
506.72	0.292
507.18	0.292
507.63	0.289
508.09	0.291
508.54	0.288
509.00	0.287
509.45	0.290
509.91	0.288
510.36	0.285
510.82	0.289
511.27	0.286
511.73	0.285
512.19	0.285
512.64	0.285
513.10	0.285
513.55	0.285
514.01	0.282
514.46	0.281
514.92	0.279
515.37	0.278
515.83	0.280
516.28	0.279
516.73	0.279
517.19	0.280
517.64	0.276
518.10	0.276
518.55	0.278
519.01	0.278
519.46	0.277
519.92	0.276
520.37	0.272
520.83	0.273
521.28	0.272
521.74	0.274
522.19	0.274
522.65	0.273
523.10	0.271
523.55	0.274
524.01	0.275
524.46	0.268
524.92	0.269
525.37	0.268
525.83	0.269
526.28	0.269
526.73	0.271
527.19	0.271
527.64	0.270
528.10	0.268
528.55	0.265
529.01	0.266
529.46	0.265
529.91	0.267
530.37	0.263
530.82	0.265
531.28	0.263
531.73	0.263
532.18	0.261
532.64	0.262
533.09	0.261
533.54	0.262
534.00	0.260
534.45	0.262
534.91	0.264
535.36	0.261
535.81	0.260
536.27	0.258
536.72	0.261
537.17	0.260
537.63	0.257
538.08	0.256
538.54	0.259
538.99	0.256
539.44	0.258
539.90	0.256
540.35	0.255
540.80	0.255
541.26	0.254
541.71	0.254
542.16	0.253
542.62	0.253
543.07	0.253
543.52	0.252
543.98	0.251
544.43	0.252
544.88	0.251
545.34	0.251
545.79	0.251
546.24	0.248
546.69	0.251
547.15	0.249
547.60	0.248
548.05	0.249
548.51	0.246
548.96	0.246
549.41	0.249
549.86	0.247
550.32	0.247
550.77	0.246
551.22	0.246
551.68	0.242
552.13	0.244
552.58	0.241
553.03	0.244
553.49	0.243
553.94	0.243
554.39	0.244
554.84	0.242
555.30	0.244
555.75	0.243
556.20	0.241
556.65	0.239
557.11	0.238
557.56	0.238
558.01	0.241
558.46	0.242
558.92	0.237
559.37	0.238
559.82	0.237
560.27	0.237
560.72	0.237
561.18	0.236
561.63	0.234
562.08	0.233
562.53	0.235
562.99	0.234
563.44	0.234
563.89	0.232
564.34	0.234
564.79	0.236
565.25	0.232
565.70	0.232
566.15	0.231
566.60	0.230
567.05	0.231
567.50	0.230
567.96	0.229
568.41	0.231
568.86	0.228
569.31	0.228
569.76	0.228
570.21	0.228
570.67	0.228
571.12	0.227
571.57	0.227
572.02	0.225
572.47	0.225
572.92	0.225
573.37	0.224
573.83	0.224
574.28	0.226
574.73	0.225
575.18	0.226
575.63	0.224
576.08	0.221
576.53	0.222
576.98	0.223
577.44	0.220
577.89	0.221
578.34	0.219
578.79	0.219
579.24	0.219
579.69	0.221
580.14	0.217
580.59	0.219
581.04	0.218
581.49	0.219
581.95	0.218
582.40	0.217
582.85	0.216
583.30	0.216
583.75	0.215
584.20	0.215
584.65	0.215
585.10	0.215
585.55	0.215
586.00	0.214
586.45	0.214
586.90	0.216
587.35	0.215
587.80	0.213
588.25	0.214
588.71	0.215
589.16	0.211
589.61	0.211
590.06	0.212
590.51	0.210
590.96	0.211
591.41	0.211
591.86	0.209
592.31	0.209
592.76	0.209
593.21	0.210
593.66	0.213
594.11	0.210
594.56	0.208
595.01	0.208
595.46	0.209
595.91	0.210
596.36	0.207
596.81	0.209
597.26	0.207
597.71	0.207
598.16	0.205
598.61	0.206
599.06	0.206
599.51	0.208
599.96	0.208
600.41	0.206
600.86	0.205
601.31	0.205
601.76	0.205
602.21	0.206
602.65	0.204
603.10	0.205
603.55	0.203
604.00	0.204
604.45	0.203
604.90	0.202
605.35	0.199
605.80	0.203
606.25	0.203
606.70	0.203
607.15	0.199
607.60	0.200
608.05	0.200
608.50	0.200
608.95	0.198
609.39	0.201
609.84	0.198
610.29	0.199
610.74	0.198
611.19	0.197
611.64	0.199
612.09	0.199
612.54	0.196
612.99	0.198
613.44	0.197
613.88	0.199
614.33	0.197
614.78	0.195
615.23	0.194
615.68	0.196
616.13	0.195
616.58	0.193
617.03	0.194
617.47	0.195
617.92	0.195
618.37	0.194
618.82	0.195
619.27	0.194
619.72	0.194
620.17	0.191
620.61	0.190
621.06	0.190
621.51	0.191
621.96	0.192
622.41	0.192
622.86	0.189
623.30	0.191
623.75	0.191
624.20	0.191
624.65	0.190
625.10	0.189
625.54	0.190
625.99	0.190
626.44	0.188
626.89	0.189
627.34	0.189
627.78	0.188
628.23	0.186
628.68	0.186
629.13	0.188
629.58	0.186
630.02	0.187
630.47	0.186
630.92	0.185
631.37	0.186
631.81	0.188
632.26	0.186
632.71	0.185
633.16	0.184
633.61	0.183
634.05	0.182
634.50	0.185
634.95	0.184
635.40	0.185
635.84	0.184
636.29	0.183
636.74	0.185
637.18	0.184
637.63	0.181
638.08	0.183
638.53	0.181
638.97	0.182
639.42	0.182
639.87	0.183
640.32	0.179
640.76	0.181
641.21	0.181
641.66	0.181
642.10	0.182
642.55	0.180
643.00	0.181
643.44	0.181
643.89	0.180
644.34	0.180
644.79	0.179
645.23	0.180
645.68	0.180
646.13	0.178
646.57	0.178
647.02	0.177
647.47	0.180
647.91	0.177
648.36	0.178
648.81	0.178
649.25	0.177
649.70	0.175
650.15	0.176
650.59	0.176
651.04	0.175
651.48	0.178
651.93	0.176
652.38	0.175
652.82	0.175
653.27	0.174
653.72	0.176
654.16	0.175
654.61	0.176
655.06	0.174
655.50	0.173
655.95	0.171
656.39	0.167
656.84	0.169
657.29	0.175
657.73	0.172
658.18	0.171
658.62	0.173
659.07	0.175
659.52	0.173
659.96	0.172
660.41	0.175
660.85	0.170
661.30	0.171
661.74	0.171
662.19	0.171
662.64	0.171
663.08	0.167
663.53	0.170
663.97	0.171
664.42	0.169
664.86	0.170
665.31	0.171
665.75	0.170
666.20	0.172
666.65	0.170
667.09	0.171
667.54	0.169
667.98	0.167
668.43	0.168
668.87	0.169
669.32	0.167
669.76	0.167
670.21	0.168
670.65	0.165
671.10	0.167
671.54	0.167
671.99	0.164
672.43	0.164
672.88	0.165
673.32	0.166
673.77	0.164
674.21	0.164
674.66	0.164
675.10	0.163
675.55	0.163
675.99	0.164
676.44	0.165
676.88	0.164
677.33	0.164
677.77	0.164
678.22	0.165
678.66	0.161
679.11	0.162
679.55	0.163
679.99	0.162
680.44	0.164
680.88	0.163
681.33	0.161
681.77	0.161
682.22	0.162
682.66	0.162
683.11	0.159
683.55	0.161
683.99	0.161
684.44	0.160
684.88	0.158
685.33	0.158
685.77	0.161
686.21	0.159
686.66	0.160
687.10	0.158
687.55	0.158
687.99	0.160
688.44	0.158
688.88	0.160
689.32	0.160
689.77	0.157
690.21	0.156
690.65	0.156
691.10	0.157
691.54	0.156
691.99	0.157
692.43	0.156
692.87	0.155
693.32	0.157
693.76	0.156
694.20	0.158
694.65	0.155
695.09	0.156
695.53	0.156
695.98	0.156
696.42	0.154
696.86	0.157
697.31	0.152
697.75	0.153
698.19	0.153
698.64	0.154
699.08	0.156
699.52	0.155
699.97	0.154
700.41	0.155
700.85	0.153
701.30	0.153
701.74	0.155
702.18	0.154
702.63	0.153
703.07	0.154
703.51	0.153
703.96	0.155
704.40	0.154
704.84	0.154
705.28	0.153
705.73	0.152
706.17	0.153
706.61	0.152
707.06	0.151
707.50	0.151
707.94	0.152
708.38	0.149
708.83	0.154
709.27	0.150
709.71	0.149
710.15	0.152
710.60	0.149
711.04	0.150
711.48	0.152
711.92	0.152
712.37	0.150
712.81	0.152
713.25	0.151
713.69	0.150
714.13	0.153
714.58	0.151
715.02	0.148
715.46	0.150
715.90	0.148
716.35	0.146
716.79	0.150
717.23	0.151
717.67	0.150
718.11	0.150
718.56	0.148
719.00	0.152
719.44	0.149
719.88	0.148
720.32	0.148
720.76	0.150
721.21	0.149
721.65	0.148
722.09	0.147
722.53	0.149
722.97	0.148
723.41	0.147
723.86	0.149
724.30	0.150
724.74	0.149
725.18	0.149
725.62	0.146
726.06	0.149
726.50	0.149
726.95	0.147
727.39	0.150
727.83	0.148
728.27	0.149
728.71	0.148
729.15	0.149
729.59	0.150
730.03	0.147
730.48	0.148
730.92	0.147
731.36	0.150
731.80	0.148
732.24	0.150
732.68	0.149
733.12	0.145
733.56	0.146
734.00	0.147
734.44	0.147
734.89	0.147
735.33	0.149
735.77	0.150
736.21	0.149
736.65	0.146
737.09	0.150
737.53	0.148
737.97	0.149
738.41	0.149
738.85	0.151
739.29	0.150
739.73	0.149
740.17	0.148
740.61	0.149
741.05	0.150
741.49	0.147
741.93	0.148
742.37	0.143
742.81	0.146
743.26	0.148
743.70	0.146
744.14	0.148
744.58	0.147
745.02	0.148
745.46	0.147
745.90	0.146
746.34	0.149
746.78	0.147
747.22	0.146
747.66	0.146
748.10	0.147
748.54	0.146
748.98	0.141
749.42	0.145
749.86	0.147
750.29	0.144
750.73	0.143
751.17	0.141
751.61	0.143
752.05	0.148
752.49	0.142
752.93	0.144
753.37	0.142
753.81	0.144
754.25	0.141
754.69	0.142
755.13	0.142
755.57	0.146
756.01	0.144
756.45	0.142
756.89	0.141
757.33	0.145
757.77	0.144
758.21	0.141
758.64	0.141
759.08	0.136
759.52	0.140
759.96	0.143
760.40	0.140
760.84	0.139
761.28	0.139
761.72	0.142
762.16	0.139
762.60	0.141
763.03	0.136
763.47	0.139
763.91	0.142
764.35	0.140
764.79	0.139
765.23	0.137
765.67	0.138
766.11	0.139
766.54	0.138
766.98	0.140
767.42	0.140
767.86	0.136
768.30	0.139
768.74	0.141
769.17	0.141
769.61	0.140
770.05	0.141
770.49	0.139
770.93	0.140
771.37	0.136
771.80	0.136
772.24	0.137
772.68	0.137
773.12	0.136
773.56	0.139
774.00	0.135
774.43	0.136
774.87	0.138
775.31	0.137
775.75	0.138
776.19	0.138
776.62	0.135
777.06	0.139
777.50	0.137
777.94	0.139
778.37	0.136
778.81	0.133
779.25	0.137
779.69	0.137
780.13	0.136
780.56	0.135
781.00	0.136
781.44	0.135
781.88	0.136
782.31	0.133
782.75	0.135
783.19	0.140
783.63	0.135
784.06	0.133
784.50	0.136
784.94	0.136
785.37	0.134
785.81	0.136
786.25	0.136
786.69	0.132
787.12	0.133
787.56	0.132
788.00	0.137
788.43	0.138
788.87	0.133
789.31	0.134
789.75	0.135
790.18	0.134
790.62	0.131
791.06	0.134
791.49	0.134
791.93	0.131
792.37	0.136
792.80	0.130
793.24	0.135
793.68	0.133
794.11	0.132
794.55	0.133
794.99	0.132
795.42	0.133
795.86	0.136
796.30	0.136
796.73	0.131
797.17	0.132
797.61	0.129
798.04	0.131
798.48	0.133
798.91	0.129
799.35	0.130
799.79	0.134
800.22	0.131
800.66	0.133
801.10	0.133
801.53	0.131
801.97	0.135
802.40	0.136
802.84	0.130
803.28	0.126
803.71	0.129
804.15	0.130
804.58	0.130
805.02	0.132
805.46	0.129
805.89	0.131
806.33	0.131
806.76	0.126
807.20	0.131
807.63	0.131
808.07	0.130
808.51	0.129
808.94	0.128
809.38	0.128
809.81	0.128
810.25	0.132
810.68	0.132
811.12	0.129
811.55	0.130
811.99	0.130
812.42	0.130
812.86	0.129
813.29	0.130
813.73	0.131
814.17	0.126
814.60	0.127
815.04	0.128
815.47	0.130
815.91	0.125
816.34	0.128
816.78	0.127
817.21	0.131
817.65	0.132
818.08	0.127
818.52	0.126
818.95	0.133
819.39	0.126
819.82	0.131
820.25	0.132
820.69	0.125
821.12	0.130
821.56	0.130
821.99	0.130
822.43	0.125
822.86	0.128
823.30	0.133
823.73	0.128
824.17	0.126
824.60	0.124
825.04	0.132
825.47	0.127
825.90	0.128
826.34	0.127
826.77	0.128
827.21	0.130
827.64	0.131
828.08	0.127
828.51	0.125
828.94	0.126
829.38	0.126
829.81	0.131
830.25	0.130
830.68	0.132
831.11	0.129
831.55	0.132
831.98	0.130
832.42	0.134
832.85	0.132
833.28	0.130
833.72	0.135
834.15	0.133
834.58	0.132
835.02	0.132
835.45	0.134
835.88	0.134
836.32	0.135
836.75	0.130
837.19	0.133
837.62	0.132
838.05	0.132
838.49	0.130
838.92	0.130
839.35	0.129
839.79	0.132
840.22	0.133
840.65	0.129
841.09	0.132
841.52	0.133
841.95	0.132
842.39	0.135
842.82	0.132
843.25	0.130
843.68	0.132
844.12	0.132
844.55	0.132
844.98	0.128
845.42	0.128
845.85	0.130
846.28	0.132
846.71	0.131
847.15	0.136
847.58	0.133
848.01	0.132
848.45	0.135
848.88	0.134
849.31	0.134
849.74	0.134
850.18	0.132
850.61	0.132
851.04	0.137
851.47	0.132
851.91	0.135
852.34	0.134
852.77	0.133
853.20	0.132
853.64	0.133
854.07	0.136
854.50	0.133
854.93	0.134
855.36	0.131
855.80	0.133
856.23	0.128
856.66	0.134
857.09	0.135
857.52	0.130
857.96	0.131
858.39	0.135
858.82	0.126
859.25	0.134
859.68	0.133
860.12	0.129
860.55	0.129
860.98	0.135
861.41	0.131
861.84	0.134
862.27	0.129
862.71	0.134
863.14	0.133
863.57	0.136
864.00	0.131
864.43	0.135
864.86	0.134
865.30	0.139
865.73	0.137
866.16	0.133
866.59	0.131
867.02	0.132
867.45	0.137
867.88	0.138
868.31	0.135
868.75	0.137
869.18	0.134
869.61	0.133
870.04	0.130
870.47	0.138
870.90	0.136
871.33	0.136
871.76	0.129
872.19	0.138
872.62	0.133
873.06	0.129
873.49	0.138
873.92	0.132
874.35	0.134
874.78	0.136
875.21	0.139
875.64	0.132
876.07	0.137
876.50	0.134
876.93	0.136
877.36	0.136
877.79	0.137
878.22	0.137
878.65	0.138
879.08	0.129
879.51	0.138
879.94	0.128
880.37	0.134
880.80	0.139
881.23	0.133
881.67	0.137
882.10	0.135
882.53	0.134
882.96	0.139
883.39	0.131
883.82	0.134
884.25	0.136
884.68	0.141
885.11	0.136
885.54	0.139
885.97	0.138
886.39	0.132
886.82	0.136
887.25	0.134
887.68	0.140
888.11	0.132
888.54	0.133
888.97	0.139
889.40	0.141
889.83	0.139
890.26	0.135
890.69	0.130
891.12	0.132
891.55	0.135
891.98	0.136
892.41	0.132
892.84	0.137
893.27	0.137
893.70	0.138
894.13	0.139
894.56	0.139
894.98	0.140
895.41	0.141
895.84	0.143
896.27	0.137
896.70	0.139
897.13	0.141
897.56	0.136
897.99	0.137
898.42	0.135
898.85	0.138
899.27	0.141
899.70	0.136
900.13	0.139
900.56	0.140
900.99	0.138
901.42	0.139
901.85	0.142
902.28	0.137
902.70	0.138
903.13	0.143
903.56	0.139
903.99	0.137
904.42	0.137
904.85	0.142
905.27	0.138
905.70	0.139
906.13	0.142
906.56	0.137
906.99	0.139
907.42	0.138
907.84	0.135
908.27	0.138
908.70	0.141
909.13	0.139
909.56	0.135
909.98	0.135
910.41	0.136
910.84	0.139
911.27	0.137
911.70	0.138
912.12	0.134
912.55	0.135
912.98	0.137
913.41	0.137
913.84	0.138
914.26	0.134
914.69	0.138
915.12	0.138
915.55	0.135
915.97	0.139
916.40	0.138
916.83	0.132
917.26	0.140
917.68	0.139
918.11	0.140
918.54	0.139
918.97	0.140
919.39	0.141
919.82	0.139
920.25	0.135
920.67	0.137
921.10	0.141
921.53	0.140
921.96	0.141
922.38	0.138
922.81	0.139
923.24	0.146
923.66	0.140
924.09	0.142
924.52	0.147
924.94	0.140
925.37	0.144
925.80	0.142
926.22	0.142
926.65	0.141
927.08	0.146
927.50	0.144
927.93	0.150
928.36	0.143
928.78	0.146
929.21	0.148
929.64	0.150
930.06	0.155
930.49	0.153
930.92	0.157
931.34	0.153
931.77	0.152
932.20	0.153
932.62	0.155
933.05	0.152
933.47	0.159
933.90	0.157
934.33	0.156
934.75	0.157
935.18	0.156
935.61	0.161
936.03	0.164
936.46	0.163
936.88	0.163
937.31	0.161
937.73	0.164
938.16	0.167
938.59	0.167
939.01	0.174
939.44	0.174
939.86	0.175
940.29	0.178
940.71	0.176
941.14	0.182
941.57	0.180
941.99	0.186
942.42	0.183
942.84	0.181
943.27	0.196
943.69	0.197
944.12	0.199
944.54	0.199
944.97	0.201
945.39	0.196
945.82	0.198
946.24	0.204
946.67	0.197
947.09	0.213
947.52	0.204
947.94	0.213
948.37	0.218
948.79	0.217
949.22	0.215
949.64	0.212
950.07	0.222
950.49	0.224
950.92	0.223
951.34	0.224
951.77	0.227
952.19	0.224
952.62	0.236
953.04	0.239
953.47	0.236
953.89	0.245
954.32	0.247
954.74	0.246
955.17	0.243
955.59	0.261
956.01	0.250
956.44	0.258
956.86	0.264
957.29	0.264
957.71	0.270
958.14	0.267
958.56	0.269
958.98	0.269
959.41	0.275
959.83	0.270
960.26	0.275
960.68	0.285
961.10	0.278
961.53	0.277
961.95	0.283
962.38	0.283
962.80	0.281
963.22	0.287
963.65	0.286
964.07	0.283
964.50	0.288
964.92	0.291
965.34	0.293
965.77	0.291
966.19	0.292
966.61	0.288
967.04	0.295
967.46	0.289
967.88	0.300
968.31	0.292
968.73	0.289
969.15	0.292
969.58	0.295
970.00	0.295
970.42	0.288
970.85	0.292
971.27	0.295
971.69	0.291
972.12	0.291
972.54	0.299
972.96	0.297
973.39	0.299
973.81	0.299
974.23	0.297
974.65	0.294
975.08	0.294
975.50	0.293
975.92	0.301
976.35	0.293
976.77	0.294
977.19	0.298
977.61	0.294
978.04	0.292
978.46	0.301
978.88	0.296
979.30	0.297
979.73	0.295
980.15	0.299
980.57	0.301
980.99	0.298
981.42	0.294
981.84	0.296
982.26	0.296
982.68	0.297
983.11	0.292
983.53	0.294
983.95	0.298
984.37	0.292
984.79	0.289
985.22	0.299
985.64	0.294
986.06	0.295
986.48	0.293
986.90	0.289
987.33	0.290
987.75	0.288
988.17	0.285
988.59	0.288
989.01	0.279
989.43	0.287
989.86	0.282
990.28	0.288
990.70	0.288
991.12	0.286
991.54	0.291
991.96	0.286
992.39	0.293
992.81	0.279
993.23	0.285
993.65	0.282
994.07	0.282
994.49	0.278
994.91	0.276
995.34	0.278
995.76	0.275
996.18	0.281
996.60	0.279
997.02	0.281
997.44	0.271
997.86	0.281
998.28	0.271
998.70	0.282
999.12	0.275
999.55	0.269
999.97	0.267
1000.39	0.269
1000.81	0.269
1001.23	0.275
1001.65	0.270
1002.07	0.267
1002.49	0.268
1002.91	0.261
1003.33	0.262
1003.75	0.262
1004.17	0.264
1004.59	0.260
1005.01	0.263
1005.43	0.267
1005.85	0.253
1006.28	0.253
1006.70	0.254
1007.12	0.261
1007.54	0.258
1007.96	0.250
1008.38	0.252
1008.80	0.253
1009.22	0.255
1009.64	0.250
1010.06	0.250
1010.48	0.252
1010.90	0.253
1011.32	0.245
1011.74	0.245
1012.16	0.250
1012.58	0.248
1013.00	0.247
1013.42	0.237
1013.84	0.238
1014.26	0.243
1014.67	0.254
1015.09	0.236
1015.51	0.240
1015.93	0.240
1016.35	0.237
1016.77	0.237
1017.19	0.239
1017.61	0.238
1018.03	0.233
1018.45	0.232
1018.87	0.236
1019.29	0.230
1019.71	0.230
1020.13	0.231
1020.55	0.225
1020.97	0.225
1021.38	0.230
1021.80	0.222
1022.22	0.228
1022.64	0.223
1023.06	0.217
1023.48	0.218
1023.90	0.215
1024.32	0.210
1024.74	0.224
1025.15	0.219
1025.57	0.207
1025.99	0.218
1026.41	0.223
1026.83	0.216
1027.25	0.219
1027.67	0.216
1028.08	0.211
1028.50	0.218
1028.92	0.209
1029.34	0.207
1029.76	0.225
1030.18	0.206
1030.60	0.208
1031.01	0.212
1031.43	0.211
1031.85	0.213
1032.27	0.220
1032.69	0.199
1033.10	0.211
1033.52	0.198
1033.94	0.207
1034.36	0.201
1034.78	0.191
1035.19	0.214
1035.61	0.197
1036.03	0.206
1036.45	0.210
1036.87	0.204
1037.28	0.191
1037.70	0.191
1038.12	0.203
1038.54	0.183
1038.95	0.196
1039.37	0.200
1039.79	0.196
1040.21	0.199
1040.62	0.207
1041.04	0.195
1041.46	0.182
1041.88	0.196
1042.29	0.195
1042.71	0.207
1043.13	0.203
1043.55	0.205
1043.96	0.197
1044.38	0.202
1044.80	0.182
1045.21	0.187
1045.63	0.179
1046.05	0.188
1046.47	0.185
1046.88	0.179
1047.30	0.202
1047.72	0.187
1048.13	0.182
1048.55	0.186
1048.97	0.198
1049.38	0.199
1049.80	0.197
1050.22	0.215
1050.63	0.179
1051.05	0.204
1051.47	0.180
1051.88	0.180
1052.30	0.204
1052.72	0.188
1053.13	0.184
1053.55	0.217
1053.97	0.171
1054.38	0.178
1054.80	0.179
1055.21	0.189
1055.63	0.182
1056.05	0.182
1056.46	0.199
1056.88	0.193
1057.29	0.205
1057.71	0.216
1058.13	0.194
1058.54	0.204
1058.96	0.171
1059.37	0.201
1059.79	0.201
1060.21	0.211
1060.62	0.202
1061.04	0.176
1061.45	0.251
1061.87	0.182
1062.28	0.158
1062.70	0.177
1063.12	0.200
1063.53	0.230
1063.95	0.279
1064.36	0.228
1064.78	0.282
1065.19	0.202
1065.61	0.213
1066.02	0.197
1066.44	0.249
1066.85	0.202
1067.27	0.259
1067.68	0.219
1068.10	0.205
1068.51	0.314
1068.93	0.283
1069.35	0.357
1069.76	0.259
1070.17	0.331
1070.59	0.273
1071.00	0.376
1071.42	0.241
1071.83	0.403
1072.25	0.440
1072.66	0.313
1073.08	0.454
1073.49	0.631
1073.91	0.321
1074.32	0.431
1074.74	0.262
1075.15	0.324
1075.57	0.318
1075.98	0.449
1076.40	0.342
1076.81	0.682
1077.22	0.271
1077.64	0.499
1078.05	0.595
1078.47	0.595
1078.88	0.775
1079.30	0.528
1079.71	-0.000
1080.12	1.495
1080.54	0.604
1080.95	0.742
1081.37	0.987
1081.78	0.502
1082.19	1.047
1082.61	-0.000
1083.02	1.064
1083.44	1.844
1083.85	1.017
1084.26	0.684
1084.68	-0.000
1085.09	0.953
1085.50	1.225
1085.92	-0.000
1086.33	-0.000
1086.74	-0.000
1087.16	-0.000
1087.57	-0.000
1087.98	-0.000
1088.40	-0.000
1088.81	0.979
1089.22	-0.000
1089.64	-0.000
1090.05	-0.000
1090.46	-0.000
1090.88	-0.000
1091.29	0.636
1091.70	-0.000
1092.12	-0.000
1092.53	-0.000
1092.94	-0.000
1093.36	-0.000
1093.77	-0.000
1094.18	-0.000
1094.59	-0.000
1095.01	-0.000
1095.42	-0.000
1095.83	-0.000
1096.25	-0.000
1096.66	1.230
1097.07	-0.000
1097.48	1.079
1097.90	-0.000
1098.31	-0.000
1098.72	-0.000
1099.13	-0.000
>>>>>End Processed Spectral Data<<<<<
