SpectraSuite Data File
++++++++++++++++++++++++++++++++++++
Date: Sun Apr 24 16:36:59 CEST 2016
User: spectrasuite
Dark Spectrum Present: Yes
Reference Spectrum Present: Yes
Number of Sampled Component Spectra: 1
Spectrometers: HR+C0708
Integration Time (usec): 1000 (HR+C0708)
Spectra Averaged: 10 (HR+C0708)
Boxcar Smoothing: 0 (HR+C0708)
Correct for Electrical Dark: No (HR+C0708)
Strobe/Lamp Enabled: No (HR+C0708)
Correct for Detector Non-linearity: No (HR+C0708)
Correct for Stray Light: No (HR+C0708)
Number of Pixels in Processed Spectrum: 2048
>>>>>Begin Processed Spectral Data<<<<<
188.76	-0.000
189.23	-0.000
189.70	-0.000
190.17	-0.000
190.64	-0.000
191.12	-0.000
191.59	-0.000
192.06	-0.000
192.53	-0.000
193.01	-0.000
193.48	-0.000
193.95	-0.000
194.42	-0.000
194.90	-0.000
195.37	-0.000
195.84	-0.000
196.31	-0.000
196.78	-0.000
197.26	-0.000
197.73	-0.000
198.20	-0.000
198.67	-0.000
199.14	-0.000
199.62	-0.000
200.09	-0.000
200.56	-0.000
201.03	-0.000
201.50	-0.000
201.97	-0.000
202.45	-0.000
202.92	-0.000
203.39	2.260
203.86	1.672
204.33	-0.000
204.80	-0.000
205.28	-0.000
205.75	-0.000
206.22	-0.000
206.69	-0.000
207.16	-0.000
207.63	-0.000
208.11	-0.000
208.58	2.180
209.05	-0.000
209.52	-0.000
209.99	1.719
210.46	-0.000
210.93	-0.000
211.41	-0.000
211.88	-0.000
212.35	-0.000
212.82	-0.000
213.29	-0.000
213.76	1.267
214.23	-0.000
214.70	-0.000
215.18	-0.000
215.65	1.346
216.12	-0.000
216.59	-0.000
217.06	-0.000
217.53	-0.000
218.00	-0.000
218.47	-0.000
218.94	-0.000
219.41	-0.000
219.89	-0.000
220.36	-0.000
220.83	2.526
221.30	-0.000
221.77	-0.000
222.24	-0.000
222.71	-0.000
223.18	-0.000
223.65	-0.000
224.12	-0.000
224.59	-0.000
225.06	-0.000
225.54	1.323
226.01	1.426
226.48	-0.000
226.95	2.238
227.42	2.951
227.89	-0.000
228.36	-0.000
228.83	-0.000
229.30	1.966
229.77	2.481
230.24	1.993
230.71	-0.000
231.18	-0.000
231.65	-0.000
232.12	2.003
232.59	2.457
233.06	-0.000
233.53	-0.000
234.00	2.299
234.47	3.297
234.94	-0.000
235.41	-0.000
235.88	-0.000
236.35	-0.000
236.82	2.814
237.29	2.672
237.76	-0.000
238.23	-0.000
238.70	-0.000
239.17	2.595
239.64	3.109
240.11	-0.000
240.58	3.362
241.05	3.518
241.52	-0.000
241.99	-0.000
242.46	2.992
242.93	-0.000
243.40	3.980
243.87	-0.000
244.34	2.575
244.81	-0.000
245.28	-0.000
245.75	-0.000
246.22	3.087
246.69	-0.000
247.16	-0.000
247.63	2.939
248.10	3.489
248.57	-0.000
249.04	-0.000
249.51	-0.000
249.98	-0.000
250.45	-0.000
250.92	-0.000
251.39	-0.000
251.85	-0.000
252.32	-0.000
252.79	-0.000
253.26	3.395
253.73	-0.000
254.20	3.461
254.67	2.949
255.14	-0.000
255.61	-0.000
256.08	-0.000
256.55	-0.000
257.02	3.967
257.49	-0.000
257.95	3.468
258.42	3.310
258.89	3.443
259.36	2.779
259.83	3.096
260.30	3.325
260.77	3.583
261.24	2.816
261.71	3.164
262.17	4.262
262.64	2.916
263.11	2.886
263.58	3.377
264.05	2.990
264.52	2.686
264.99	2.745
265.46	2.889
265.92	3.163
266.39	2.619
266.86	2.760
267.33	2.767
267.80	2.576
268.27	2.701
268.74	2.856
269.20	2.851
269.67	2.495
270.14	2.457
270.61	2.546
271.08	2.660
271.55	2.429
272.01	2.525
272.48	2.619
272.95	2.481
273.42	2.343
273.89	2.513
274.36	2.426
274.82	2.294
275.29	2.303
275.76	2.414
276.23	2.279
276.70	2.368
277.16	2.298
277.63	2.315
278.10	2.232
278.57	2.231
279.04	2.257
279.50	2.275
279.97	2.220
280.44	2.154
280.91	2.149
281.38	2.131
281.84	2.110
282.31	2.144
282.78	2.166
283.25	2.080
283.72	2.057
284.18	2.073
284.65	2.113
285.12	2.005
285.59	2.038
286.05	2.083
286.52	2.027
286.99	2.009
287.46	2.010
287.92	2.001
288.39	1.966
288.86	1.981
289.33	1.982
289.79	1.975
290.26	1.933
290.73	1.929
291.20	1.950
291.66	1.921
292.13	1.887
292.60	1.913
293.07	1.911
293.53	1.867
294.00	1.885
294.47	1.850
294.93	1.885
295.40	1.843
295.87	1.835
296.34	1.860
296.80	1.801
297.27	1.824
297.74	1.832
298.20	1.831
298.67	1.792
299.14	1.811
299.60	1.806
300.07	1.784
300.54	1.755
301.01	1.753
301.47	1.755
301.94	1.724
302.41	1.737
302.87	1.755
303.34	1.752
303.81	1.716
304.27	1.721
304.74	1.711
305.21	1.717
305.67	1.694
306.14	1.660
306.61	1.715
307.07	1.648
307.54	1.655
308.01	1.671
308.47	1.648
308.94	1.658
309.40	1.666
309.87	1.661
310.34	1.641
310.80	1.635
311.27	1.615
311.74	1.604
312.20	1.601
312.67	1.601
313.13	1.585
313.60	1.595
314.07	1.580
314.53	1.570
315.00	1.551
315.47	1.580
315.93	1.554
316.40	1.560
316.86	1.567
317.33	1.523
317.80	1.516
318.26	1.536
318.73	1.537
319.19	1.508
319.66	1.511
320.13	1.510
320.59	1.488
321.06	1.482
321.52	1.513
321.99	1.483
322.45	1.470
322.92	1.446
323.39	1.468
323.85	1.469
324.32	1.460
324.78	1.465
325.25	1.444
325.71	1.428
326.18	1.436
326.64	1.472
327.11	1.440
327.58	1.411
328.04	1.416
328.51	1.420
328.97	1.394
329.44	1.389
329.90	1.384
330.37	1.372
330.83	1.364
331.30	1.361
331.76	1.358
332.23	1.341
332.69	1.345
333.16	1.329
333.62	1.326
334.09	1.311
334.56	1.296
335.02	1.301
335.49	1.284
335.95	1.273
336.42	1.261
336.88	1.260
337.35	1.242
337.81	1.232
338.28	1.222
338.74	1.223
339.20	1.208
339.67	1.185
340.13	1.185
340.60	1.164
341.06	1.144
341.53	1.148
341.99	1.135
342.46	1.115
342.92	1.104
343.39	1.087
343.85	1.084
344.32	1.067
344.78	1.061
345.25	1.057
345.71	1.036
346.17	1.021
346.64	1.015
347.10	0.988
347.57	0.972
348.03	0.959
348.50	0.946
348.96	0.936
349.43	0.926
349.89	0.908
350.35	0.897
350.82	0.886
351.28	0.868
351.75	0.861
352.21	0.855
352.67	0.836
353.14	0.829
353.60	0.816
354.07	0.810
354.53	0.791
355.00	0.777
355.46	0.772
355.92	0.755
356.39	0.752
356.85	0.751
357.31	0.738
357.78	0.726
358.24	0.724
358.71	0.717
359.17	0.707
359.63	0.705
360.10	0.702
360.56	0.697
361.03	0.689
361.49	0.677
361.95	0.679
362.42	0.672
362.88	0.668
363.34	0.663
363.81	0.662
364.27	0.656
364.73	0.656
365.20	0.655
365.66	0.645
366.12	0.643
366.59	0.643
367.05	0.636
367.51	0.634
367.98	0.626
368.44	0.625
368.90	0.626
369.37	0.621
369.83	0.617
370.29	0.619
370.76	0.616
371.22	0.613
371.68	0.612
372.15	0.607
372.61	0.605
373.07	0.601
373.54	0.606
374.00	0.597
374.46	0.598
374.92	0.598
375.39	0.594
375.85	0.592
376.31	0.588
376.78	0.587
377.24	0.588
377.70	0.587
378.16	0.581
378.63	0.581
379.09	0.582
379.55	0.578
380.01	0.574
380.48	0.573
380.94	0.569
381.40	0.570
381.87	0.568
382.33	0.566
382.79	0.566
383.25	0.565
383.72	0.570
384.18	0.563
384.64	0.558
385.10	0.554
385.56	0.557
386.03	0.548
386.49	0.549
386.95	0.544
387.41	0.548
387.88	0.546
388.34	0.541
388.80	0.547
389.26	0.542
389.72	0.539
390.19	0.544
390.65	0.542
391.11	0.537
391.57	0.528
392.04	0.531
392.50	0.529
392.96	0.530
393.42	0.528
393.88	0.529
394.34	0.522
394.81	0.524
395.27	0.523
395.73	0.522
396.19	0.520
396.65	0.516
397.12	0.516
397.58	0.515
398.04	0.514
398.50	0.514
398.96	0.513
399.42	0.514
399.89	0.513
400.35	0.508
400.81	0.506
401.27	0.505
401.73	0.500
402.19	0.501
402.65	0.498
403.12	0.494
403.58	0.497
404.04	0.498
404.50	0.497
404.96	0.489
405.42	0.490
405.88	0.493
406.34	0.492
406.81	0.488
407.27	0.482
407.73	0.486
408.19	0.481
408.65	0.480
409.11	0.477
409.57	0.481
410.03	0.477
410.49	0.478
410.96	0.477
411.42	0.473
411.88	0.473
412.34	0.470
412.80	0.472
413.26	0.466
413.72	0.468
414.18	0.468
414.64	0.465
415.10	0.467
415.56	0.464
416.02	0.463
416.48	0.460
416.95	0.457
417.41	0.460
417.87	0.458
418.33	0.456
418.79	0.454
419.25	0.454
419.71	0.448
420.17	0.450
420.63	0.452
421.09	0.447
421.55	0.445
422.01	0.452
422.47	0.447
422.93	0.446
423.39	0.448
423.85	0.446
424.31	0.444
424.77	0.441
425.23	0.443
425.69	0.442
426.15	0.436
426.61	0.437
427.07	0.436
427.53	0.432
427.99	0.429
428.45	0.434
428.91	0.433
429.37	0.430
429.83	0.424
430.29	0.425
430.75	0.428
431.21	0.428
431.67	0.429
432.13	0.430
432.59	0.426
433.05	0.424
433.51	0.419
433.97	0.420
434.43	0.416
434.89	0.420
435.35	0.421
435.81	0.418
436.27	0.414
436.73	0.415
437.19	0.413
437.65	0.412
438.11	0.411
438.57	0.408
439.03	0.409
439.48	0.408
439.94	0.408
440.40	0.408
440.86	0.406
441.32	0.404
441.78	0.406
442.24	0.405
442.70	0.404
443.16	0.400
443.62	0.398
444.08	0.398
444.54	0.400
444.99	0.393
445.45	0.394
445.91	0.394
446.37	0.394
446.83	0.392
447.29	0.392
447.75	0.388
448.21	0.393
448.67	0.390
449.12	0.387
449.58	0.389
450.04	0.388
450.50	0.386
450.96	0.387
451.42	0.381
451.88	0.384
452.34	0.385
452.79	0.380
453.25	0.382
453.71	0.380
454.17	0.379
454.63	0.382
455.09	0.381
455.55	0.380
456.00	0.374
456.46	0.373
456.92	0.373
457.38	0.376
457.84	0.372
458.30	0.369
458.75	0.372
459.21	0.366
459.67	0.372
460.13	0.370
460.59	0.368
461.04	0.366
461.50	0.366
461.96	0.362
462.42	0.365
462.88	0.360
463.33	0.362
463.79	0.361
464.25	0.360
464.71	0.359
465.17	0.361
465.62	0.360
466.08	0.360
466.54	0.360
467.00	0.358
467.46	0.359
467.91	0.356
468.37	0.354
468.83	0.353
469.29	0.352
469.74	0.353
470.20	0.353
470.66	0.351
471.12	0.349
471.57	0.350
472.03	0.349
472.49	0.349
472.95	0.348
473.40	0.347
473.86	0.344
474.32	0.343
474.78	0.345
475.23	0.344
475.69	0.345
476.15	0.342
476.60	0.343
477.06	0.342
477.52	0.341
477.98	0.338
478.43	0.343
478.89	0.342
479.35	0.337
479.80	0.337
480.26	0.337
480.72	0.335
481.18	0.334
481.63	0.334
482.09	0.334
482.55	0.334
483.00	0.331
483.46	0.333
483.92	0.330
484.37	0.331
484.83	0.327
485.29	0.327
485.74	0.328
486.20	0.327
486.66	0.326
487.11	0.325
487.57	0.323
488.03	0.323
488.48	0.322
488.94	0.322
489.40	0.321
489.85	0.323
490.31	0.323
490.77	0.321
491.22	0.321
491.68	0.318
492.13	0.319
492.59	0.318
493.05	0.317
493.50	0.318
493.96	0.316
494.42	0.314
494.87	0.314
495.33	0.313
495.78	0.316
496.24	0.314
496.70	0.312
497.15	0.309
497.61	0.314
498.06	0.311
498.52	0.309
498.98	0.308
499.43	0.310
499.89	0.309
500.34	0.308
500.80	0.308
501.25	0.307
501.71	0.306
502.17	0.307
502.62	0.307
503.08	0.307
503.53	0.303
503.99	0.303
504.44	0.302
504.90	0.300
505.36	0.301
505.81	0.301
506.27	0.302
506.72	0.301
507.18	0.299
507.63	0.299
508.09	0.300
508.54	0.295
509.00	0.300
509.45	0.297
509.91	0.295
510.36	0.296
510.82	0.296
511.27	0.295
511.73	0.294
512.19	0.295
512.64	0.289
513.10	0.291
513.55	0.294
514.01	0.290
514.46	0.291
514.92	0.288
515.37	0.288
515.83	0.289
516.28	0.285
516.73	0.286
517.19	0.287
517.64	0.283
518.10	0.285
518.55	0.285
519.01	0.283
519.46	0.282
519.92	0.284
520.37	0.281
520.83	0.281
521.28	0.283
521.74	0.283
522.19	0.283
522.65	0.281
523.10	0.281
523.55	0.281
524.01	0.282
524.46	0.279
524.92	0.277
525.37	0.276
525.83	0.275
526.28	0.276
526.73	0.278
527.19	0.277
527.64	0.277
528.10	0.274
528.55	0.274
529.01	0.274
529.46	0.273
529.91	0.274
530.37	0.272
530.82	0.272
531.28	0.269
531.73	0.268
532.18	0.268
532.64	0.268
533.09	0.271
533.54	0.270
534.00	0.269
534.45	0.271
534.91	0.270
535.36	0.268
535.81	0.266
536.27	0.265
536.72	0.268
537.17	0.265
537.63	0.264
538.08	0.263
538.54	0.264
538.99	0.265
539.44	0.265
539.90	0.262
540.35	0.261
540.80	0.261
541.26	0.263
541.71	0.260
542.16	0.259
542.62	0.260
543.07	0.259
543.52	0.259
543.98	0.258
544.43	0.257
544.88	0.258
545.34	0.257
545.79	0.255
546.24	0.256
546.69	0.256
547.15	0.255
547.60	0.255
548.05	0.255
548.51	0.252
548.96	0.254
549.41	0.256
549.86	0.252
550.32	0.251
550.77	0.255
551.22	0.252
551.68	0.252
552.13	0.251
552.58	0.250
553.03	0.250
553.49	0.249
553.94	0.248
554.39	0.251
554.84	0.252
555.30	0.250
555.75	0.247
556.20	0.246
556.65	0.245
557.11	0.246
557.56	0.245
558.01	0.249
558.46	0.248
558.92	0.244
559.37	0.246
559.82	0.243
560.27	0.243
560.72	0.244
561.18	0.242
561.63	0.243
562.08	0.239
562.53	0.242
562.99	0.242
563.44	0.242
563.89	0.240
564.34	0.240
564.79	0.241
565.25	0.238
565.70	0.238
566.15	0.238
566.60	0.237
567.05	0.239
567.50	0.238
567.96	0.238
568.41	0.235
568.86	0.235
569.31	0.235
569.76	0.233
570.21	0.235
570.67	0.233
571.12	0.235
571.57	0.234
572.02	0.231
572.47	0.232
572.92	0.232
573.37	0.231
573.83	0.230
574.28	0.231
574.73	0.231
575.18	0.230
575.63	0.233
576.08	0.227
576.53	0.228
576.98	0.229
577.44	0.227
577.89	0.227
578.34	0.225
578.79	0.225
579.24	0.225
579.69	0.225
580.14	0.223
580.59	0.224
581.04	0.224
581.49	0.223
581.95	0.222
582.40	0.223
582.85	0.221
583.30	0.221
583.75	0.221
584.20	0.223
584.65	0.220
585.10	0.221
585.55	0.221
586.00	0.221
586.45	0.220
586.90	0.221
587.35	0.221
587.80	0.219
588.25	0.219
588.71	0.218
589.16	0.218
589.61	0.217
590.06	0.217
590.51	0.216
590.96	0.217
591.41	0.216
591.86	0.216
592.31	0.216
592.76	0.214
593.21	0.214
593.66	0.216
594.11	0.215
594.56	0.215
595.01	0.213
595.46	0.214
595.91	0.212
596.36	0.213
596.81	0.214
597.26	0.213
597.71	0.213
598.16	0.212
598.61	0.212
599.06	0.212
599.51	0.214
599.96	0.214
600.41	0.214
600.86	0.210
601.31	0.208
601.76	0.210
602.21	0.211
602.65	0.210
603.10	0.209
603.55	0.207
604.00	0.208
604.45	0.207
604.90	0.205
605.35	0.206
605.80	0.209
606.25	0.208
606.70	0.208
607.15	0.205
607.60	0.206
608.05	0.204
608.50	0.206
608.95	0.203
609.39	0.205
609.84	0.205
610.29	0.205
610.74	0.205
611.19	0.200
611.64	0.203
612.09	0.203
612.54	0.203
612.99	0.202
613.44	0.200
613.88	0.204
614.33	0.203
614.78	0.200
615.23	0.199
615.68	0.200
616.13	0.200
616.58	0.198
617.03	0.200
617.47	0.199
617.92	0.199
618.37	0.197
618.82	0.198
619.27	0.197
619.72	0.197
620.17	0.197
620.61	0.195
621.06	0.196
621.51	0.196
621.96	0.194
622.41	0.197
622.86	0.196
623.30	0.192
623.75	0.195
624.20	0.193
624.65	0.194
625.10	0.192
625.54	0.192
625.99	0.191
626.44	0.193
626.89	0.192
627.34	0.193
627.78	0.193
628.23	0.192
628.68	0.192
629.13	0.191
629.58	0.191
630.02	0.191
630.47	0.190
630.92	0.191
631.37	0.189
631.81	0.189
632.26	0.188
632.71	0.190
633.16	0.190
633.61	0.188
634.05	0.188
634.50	0.188
634.95	0.188
635.40	0.186
635.84	0.187
636.29	0.187
636.74	0.186
637.18	0.188
637.63	0.186
638.08	0.186
638.53	0.187
638.97	0.186
639.42	0.185
639.87	0.185
640.32	0.185
640.76	0.185
641.21	0.186
641.66	0.185
642.10	0.184
642.55	0.182
643.00	0.182
643.44	0.184
643.89	0.184
644.34	0.183
644.79	0.183
645.23	0.184
645.68	0.182
646.13	0.182
646.57	0.182
647.02	0.180
647.47	0.183
647.91	0.182
648.36	0.181
648.81	0.182
649.25	0.179
649.70	0.180
650.15	0.181
650.59	0.180
651.04	0.180
651.48	0.181
651.93	0.179
652.38	0.179
652.82	0.178
653.27	0.177
653.72	0.180
654.16	0.178
654.61	0.179
655.06	0.178
655.50	0.176
655.95	0.174
656.39	0.170
656.84	0.174
657.29	0.179
657.73	0.176
658.18	0.176
658.62	0.177
659.07	0.176
659.52	0.176
659.96	0.177
660.41	0.177
660.85	0.175
661.30	0.174
661.74	0.174
662.19	0.175
662.64	0.174
663.08	0.173
663.53	0.172
663.97	0.173
664.42	0.173
664.86	0.174
665.31	0.174
665.75	0.172
666.20	0.172
666.65	0.173
667.09	0.173
667.54	0.172
667.98	0.172
668.43	0.172
668.87	0.170
669.32	0.169
669.76	0.170
670.21	0.171
670.65	0.168
671.10	0.169
671.54	0.170
671.99	0.168
672.43	0.168
672.88	0.170
673.32	0.169
673.77	0.169
674.21	0.168
674.66	0.169
675.10	0.167
675.55	0.165
675.99	0.168
676.44	0.168
676.88	0.168
677.33	0.168
677.77	0.166
678.22	0.165
678.66	0.165
679.11	0.165
679.55	0.167
679.99	0.165
680.44	0.168
680.88	0.166
681.33	0.165
681.77	0.163
682.22	0.166
682.66	0.165
683.11	0.163
683.55	0.165
683.99	0.164
684.44	0.163
684.88	0.161
685.33	0.163
685.77	0.164
686.21	0.163
686.66	0.163
687.10	0.161
687.55	0.161
687.99	0.163
688.44	0.163
688.88	0.162
689.32	0.165
689.77	0.161
690.21	0.161
690.65	0.161
691.10	0.161
691.54	0.160
691.99	0.160
692.43	0.158
692.87	0.159
693.32	0.162
693.76	0.160
694.20	0.161
694.65	0.160
695.09	0.160
695.53	0.158
695.98	0.160
696.42	0.159
696.86	0.160
697.31	0.157
697.75	0.158
698.19	0.156
698.64	0.158
699.08	0.159
699.52	0.158
699.97	0.158
700.41	0.160
700.85	0.158
701.30	0.157
701.74	0.158
702.18	0.157
702.63	0.155
703.07	0.157
703.51	0.160
703.96	0.156
704.40	0.156
704.84	0.158
705.28	0.157
705.73	0.157
706.17	0.158
706.61	0.156
707.06	0.156
707.50	0.156
707.94	0.153
708.38	0.153
708.83	0.158
709.27	0.155
709.71	0.153
710.15	0.155
710.60	0.155
711.04	0.152
711.48	0.155
711.92	0.157
712.37	0.154
712.81	0.155
713.25	0.154
713.69	0.156
714.13	0.156
714.58	0.155
715.02	0.154
715.46	0.152
715.90	0.153
716.35	0.153
716.79	0.153
717.23	0.153
717.67	0.153
718.11	0.153
718.56	0.154
719.00	0.153
719.44	0.152
719.88	0.151
720.32	0.152
720.76	0.154
721.21	0.154
721.65	0.152
722.09	0.152
722.53	0.154
722.97	0.153
723.41	0.154
723.86	0.153
724.30	0.152
724.74	0.153
725.18	0.152
725.62	0.150
726.06	0.153
726.50	0.151
726.95	0.151
727.39	0.150
727.83	0.150
728.27	0.151
728.71	0.152
729.15	0.153
729.59	0.154
730.03	0.150
730.48	0.152
730.92	0.150
731.36	0.152
731.80	0.152
732.24	0.153
732.68	0.150
733.12	0.149
733.56	0.150
734.00	0.150
734.44	0.154
734.89	0.152
735.33	0.153
735.77	0.153
736.21	0.153
736.65	0.149
737.09	0.151
737.53	0.155
737.97	0.152
738.41	0.154
738.85	0.154
739.29	0.152
739.73	0.151
740.17	0.152
740.61	0.153
741.05	0.153
741.49	0.151
741.93	0.152
742.37	0.148
742.81	0.150
743.26	0.150
743.70	0.151
744.14	0.152
744.58	0.149
745.02	0.151
745.46	0.151
745.90	0.149
746.34	0.149
746.78	0.150
747.22	0.151
747.66	0.149
748.10	0.150
748.54	0.149
748.98	0.146
749.42	0.147
749.86	0.151
750.29	0.145
750.73	0.144
751.17	0.147
751.61	0.146
752.05	0.152
752.49	0.144
752.93	0.146
753.37	0.146
753.81	0.145
754.25	0.144
754.69	0.146
755.13	0.146
755.57	0.149
756.01	0.145
756.45	0.145
756.89	0.144
757.33	0.146
757.77	0.145
758.21	0.146
758.64	0.144
759.08	0.141
759.52	0.146
759.96	0.145
760.40	0.143
760.84	0.143
761.28	0.146
761.72	0.145
762.16	0.144
762.60	0.145
763.03	0.144
763.47	0.142
763.91	0.144
764.35	0.144
764.79	0.144
765.23	0.138
765.67	0.140
766.11	0.140
766.54	0.140
766.98	0.142
767.42	0.144
767.86	0.140
768.30	0.142
768.74	0.142
769.17	0.144
769.61	0.145
770.05	0.140
770.49	0.142
770.93	0.143
771.37	0.141
771.80	0.141
772.24	0.142
772.68	0.140
773.12	0.141
773.56	0.141
774.00	0.141
774.43	0.140
774.87	0.139
775.31	0.141
775.75	0.142
776.19	0.139
776.62	0.139
777.06	0.140
777.50	0.139
777.94	0.136
778.37	0.140
778.81	0.140
779.25	0.139
779.69	0.142
780.13	0.140
780.56	0.140
781.00	0.137
781.44	0.141
781.88	0.142
782.31	0.137
782.75	0.137
783.19	0.142
783.63	0.136
784.06	0.137
784.50	0.139
784.94	0.138
785.37	0.138
785.81	0.139
786.25	0.137
786.69	0.137
787.12	0.137
787.56	0.135
788.00	0.140
788.43	0.140
788.87	0.134
789.31	0.135
789.75	0.136
790.18	0.135
790.62	0.137
791.06	0.134
791.49	0.133
791.93	0.133
792.37	0.139
792.80	0.133
793.24	0.133
793.68	0.135
794.11	0.134
794.55	0.138
794.99	0.136
795.42	0.136
795.86	0.141
796.30	0.133
796.73	0.134
797.17	0.135
797.61	0.133
798.04	0.132
798.48	0.134
798.91	0.134
799.35	0.133
799.79	0.137
800.22	0.134
800.66	0.132
801.10	0.134
801.53	0.133
801.97	0.139
802.40	0.136
802.84	0.132
803.28	0.132
803.71	0.134
804.15	0.134
804.58	0.132
805.02	0.132
805.46	0.136
805.89	0.131
806.33	0.132
806.76	0.132
807.20	0.133
807.63	0.132
808.07	0.133
808.51	0.132
808.94	0.131
809.38	0.134
809.81	0.132
810.25	0.133
810.68	0.134
811.12	0.132
811.55	0.135
811.99	0.132
812.42	0.132
812.86	0.131
813.29	0.131
813.73	0.132
814.17	0.131
814.60	0.135
815.04	0.134
815.47	0.132
815.91	0.129
816.34	0.131
816.78	0.131
817.21	0.132
817.65	0.132
818.08	0.130
818.52	0.133
818.95	0.132
819.39	0.133
819.82	0.131
820.25	0.129
820.69	0.128
821.12	0.133
821.56	0.131
821.99	0.129
822.43	0.130
822.86	0.132
823.30	0.134
823.73	0.129
824.17	0.127
824.60	0.128
825.04	0.131
825.47	0.125
825.90	0.129
826.34	0.132
826.77	0.130
827.21	0.134
827.64	0.131
828.08	0.132
828.51	0.128
828.94	0.129
829.38	0.126
829.81	0.134
830.25	0.131
830.68	0.136
831.11	0.135
831.55	0.134
831.98	0.134
832.42	0.135
832.85	0.135
833.28	0.133
833.72	0.138
834.15	0.130
834.58	0.136
835.02	0.136
835.45	0.136
835.88	0.134
836.32	0.135
836.75	0.137
837.19	0.139
837.62	0.135
838.05	0.133
838.49	0.137
838.92	0.135
839.35	0.136
839.79	0.132
840.22	0.137
840.65	0.133
841.09	0.136
841.52	0.132
841.95	0.135
842.39	0.139
842.82	0.132
843.25	0.136
843.68	0.133
844.12	0.132
844.55	0.132
844.98	0.135
845.42	0.133
845.85	0.133
846.28	0.132
846.71	0.137
847.15	0.134
847.58	0.133
848.01	0.139
848.45	0.137
848.88	0.140
849.31	0.131
849.74	0.134
850.18	0.135
850.61	0.133
851.04	0.132
851.47	0.136
851.91	0.138
852.34	0.137
852.77	0.135
853.20	0.134
853.64	0.131
854.07	0.137
854.50	0.133
854.93	0.140
855.36	0.135
855.80	0.137
856.23	0.135
856.66	0.136
857.09	0.135
857.52	0.135
857.96	0.132
858.39	0.135
858.82	0.132
859.25	0.136
859.68	0.137
860.12	0.131
860.55	0.132
860.98	0.136
861.41	0.130
861.84	0.136
862.27	0.136
862.71	0.133
863.14	0.137
863.57	0.137
864.00	0.133
864.43	0.139
864.86	0.137
865.30	0.139
865.73	0.142
866.16	0.134
866.59	0.136
867.02	0.138
867.45	0.136
867.88	0.135
868.31	0.132
868.75	0.137
869.18	0.136
869.61	0.139
870.04	0.135
870.47	0.138
870.90	0.135
871.33	0.139
871.76	0.139
872.19	0.135
872.62	0.131
873.06	0.132
873.49	0.140
873.92	0.134
874.35	0.136
874.78	0.136
875.21	0.135
875.64	0.126
876.07	0.142
876.50	0.142
876.93	0.137
877.36	0.139
877.79	0.140
878.22	0.138
878.65	0.138
879.08	0.137
879.51	0.139
879.94	0.136
880.37	0.136
880.80	0.139
881.23	0.130
881.67	0.141
882.10	0.140
882.53	0.136
882.96	0.138
883.39	0.139
883.82	0.135
884.25	0.137
884.68	0.139
885.11	0.140
885.54	0.141
885.97	0.136
886.39	0.134
886.82	0.137
887.25	0.136
887.68	0.142
888.11	0.140
888.54	0.137
888.97	0.137
889.40	0.139
889.83	0.135
890.26	0.138
890.69	0.136
891.12	0.137
891.55	0.139
891.98	0.138
892.41	0.136
892.84	0.140
893.27	0.137
893.70	0.138
894.13	0.141
894.56	0.142
894.98	0.143
895.41	0.141
895.84	0.142
896.27	0.139
896.70	0.145
897.13	0.142
897.56	0.136
897.99	0.142
898.42	0.135
898.85	0.141
899.27	0.142
899.70	0.141
900.13	0.141
900.56	0.144
900.99	0.144
901.42	0.142
901.85	0.140
902.28	0.139
902.70	0.143
903.13	0.143
903.56	0.138
903.99	0.138
904.42	0.139
904.85	0.142
905.27	0.140
905.70	0.143
906.13	0.142
906.56	0.141
906.99	0.141
907.42	0.140
907.84	0.139
908.27	0.143
908.70	0.143
909.13	0.140
909.56	0.137
909.98	0.141
910.41	0.140
910.84	0.137
911.27	0.143
911.70	0.139
912.12	0.139
912.55	0.141
912.98	0.142
913.41	0.141
913.84	0.139
914.26	0.140
914.69	0.138
915.12	0.142
915.55	0.136
915.97	0.138
916.40	0.140
916.83	0.139
917.26	0.139
917.68	0.141
918.11	0.142
918.54	0.137
918.97	0.136
919.39	0.142
919.82	0.142
920.25	0.138
920.67	0.140
921.10	0.143
921.53	0.143
921.96	0.144
922.38	0.140
922.81	0.143
923.24	0.146
923.66	0.136
924.09	0.145
924.52	0.146
924.94	0.141
925.37	0.145
925.80	0.147
926.22	0.143
926.65	0.144
927.08	0.149
927.50	0.148
927.93	0.148
928.36	0.144
928.78	0.149
929.21	0.148
929.64	0.152
930.06	0.153
930.49	0.152
930.92	0.157
931.34	0.152
931.77	0.153
932.20	0.155
932.62	0.154
933.05	0.156
933.47	0.161
933.90	0.159
934.33	0.157
934.75	0.158
935.18	0.162
935.61	0.164
936.03	0.161
936.46	0.168
936.88	0.166
937.31	0.170
937.73	0.169
938.16	0.164
938.59	0.175
939.01	0.174
939.44	0.174
939.86	0.180
940.29	0.180
940.71	0.182
941.14	0.186
941.57	0.191
941.99	0.184
942.42	0.179
942.84	0.192
943.27	0.199
943.69	0.192
944.12	0.187
944.54	0.203
944.97	0.199
945.39	0.193
945.82	0.204
946.24	0.210
946.67	0.203
947.09	0.203
947.52	0.207
947.94	0.207
948.37	0.215
948.79	0.210
949.22	0.219
949.64	0.213
950.07	0.223
950.49	0.224
950.92	0.228
951.34	0.224
951.77	0.231
952.19	0.230
952.62	0.236
953.04	0.237
953.47	0.243
953.89	0.241
954.32	0.249
954.74	0.251
955.17	0.246
955.59	0.260
956.01	0.255
956.44	0.261
956.86	0.268
957.29	0.267
957.71	0.271
958.14	0.270
958.56	0.272
958.98	0.270
959.41	0.272
959.83	0.274
960.26	0.280
960.68	0.286
961.10	0.287
961.53	0.288
961.95	0.281
962.38	0.283
962.80	0.279
963.22	0.279
963.65	0.289
964.07	0.288
964.50	0.293
964.92	0.294
965.34	0.295
965.77	0.287
966.19	0.295
966.61	0.291
967.04	0.294
967.46	0.296
967.88	0.302
968.31	0.291
968.73	0.295
969.15	0.295
969.58	0.294
970.00	0.292
970.42	0.296
970.85	0.294
971.27	0.294
971.69	0.291
972.12	0.300
972.54	0.297
972.96	0.298
973.39	0.297
973.81	0.295
974.23	0.303
974.65	0.300
975.08	0.299
975.50	0.303
975.92	0.299
976.35	0.300
976.77	0.297
977.19	0.299
977.61	0.299
978.04	0.291
978.46	0.301
978.88	0.298
979.30	0.301
979.73	0.303
980.15	0.307
980.57	0.299
980.99	0.302
981.42	0.297
981.84	0.301
982.26	0.301
982.68	0.298
983.11	0.299
983.53	0.296
983.95	0.296
984.37	0.294
984.79	0.303
985.22	0.295
985.64	0.295
986.06	0.294
986.48	0.293
986.90	0.295
987.33	0.292
987.75	0.292
988.17	0.287
988.59	0.289
989.01	0.288
989.43	0.292
989.86	0.286
990.28	0.288
990.70	0.291
991.12	0.287
991.54	0.289
991.96	0.289
992.39	0.290
992.81	0.280
993.23	0.291
993.65	0.290
994.07	0.287
994.49	0.281
994.91	0.283
995.34	0.278
995.76	0.279
996.18	0.281
996.60	0.280
997.02	0.279
997.44	0.275
997.86	0.282
998.28	0.277
998.70	0.279
999.12	0.274
999.55	0.275
999.97	0.280
1000.39	0.272
1000.81	0.279
1001.23	0.270
1001.65	0.270
1002.07	0.278
1002.49	0.271
1002.91	0.270
1003.33	0.271
1003.75	0.258
1004.17	0.265
1004.59	0.266
1005.01	0.267
1005.43	0.263
1005.85	0.257
1006.28	0.256
1006.70	0.260
1007.12	0.261
1007.54	0.261
1007.96	0.263
1008.38	0.260
1008.80	0.259
1009.22	0.254
1009.64	0.250
1010.06	0.253
1010.48	0.258
1010.90	0.257
1011.32	0.246
1011.74	0.245
1012.16	0.244
1012.58	0.241
1013.00	0.245
1013.42	0.241
1013.84	0.246
1014.26	0.241
1014.67	0.254
1015.09	0.247
1015.51	0.241
1015.93	0.232
1016.35	0.240
1016.77	0.248
1017.19	0.233
1017.61	0.238
1018.03	0.240
1018.45	0.235
1018.87	0.242
1019.29	0.230
1019.71	0.239
1020.13	0.222
1020.55	0.237
1020.97	0.218
1021.38	0.214
1021.80	0.223
1022.22	0.236
1022.64	0.223
1023.06	0.227
1023.48	0.219
1023.90	0.216
1024.32	0.215
1024.74	0.225
1025.15	0.216
1025.57	0.224
1025.99	0.223
1026.41	0.223
1026.83	0.216
1027.25	0.207
1027.67	0.224
1028.08	0.206
1028.50	0.222
1028.92	0.218
1029.34	0.212
1029.76	0.217
1030.18	0.210
1030.60	0.207
1031.01	0.211
1031.43	0.210
1031.85	0.217
1032.27	0.208
1032.69	0.194
1033.10	0.228
1033.52	0.203
1033.94	0.185
1034.36	0.207
1034.78	0.210
1035.19	0.210
1035.61	0.205
1036.03	0.216
1036.45	0.195
1036.87	0.191
1037.28	0.196
1037.70	0.198
1038.12	0.193
1038.54	0.202
1038.95	0.204
1039.37	0.196
1039.79	0.186
1040.21	0.197
1040.62	0.209
1041.04	0.202
1041.46	0.198
1041.88	0.195
1042.29	0.205
1042.71	0.199
1043.13	0.195
1043.55	0.193
1043.96	0.193
1044.38	0.191
1044.80	0.198
1045.21	0.196
1045.63	0.173
1046.05	0.176
1046.47	0.184
1046.88	0.200
1047.30	0.198
1047.72	0.181
1048.13	0.187
1048.55	0.205
1048.97	0.181
1049.38	0.193
1049.80	0.188
1050.22	0.206
1050.63	0.167
1051.05	0.182
1051.47	0.196
1051.88	0.181
1052.30	0.195
1052.72	0.189
1053.13	0.189
1053.55	0.194
1053.97	0.179
1054.38	0.189
1054.80	0.215
1055.21	0.182
1055.63	0.194
1056.05	0.203
1056.46	0.193
1056.88	0.193
1057.29	0.193
1057.71	0.217
1058.13	0.184
1058.54	0.221
1058.96	0.193
1059.37	0.206
1059.79	0.211
1060.21	0.212
1060.62	0.227
1061.04	0.175
1061.45	0.215
1061.87	0.211
1062.28	0.190
1062.70	0.185
1063.12	0.226
1063.53	0.214
1063.95	0.165
1064.36	0.217
1064.78	0.265
1065.19	0.268
1065.61	0.227
1066.02	0.231
1066.44	0.254
1066.85	0.201
1067.27	0.253
1067.68	0.237
1068.10	0.248
1068.51	0.253
1068.93	0.328
1069.35	0.426
1069.76	0.309
1070.17	0.237
1070.59	0.297
1071.00	0.313
1071.42	0.212
1071.83	0.342
1072.25	0.379
1072.66	0.374
1073.08	0.357
1073.49	0.402
1073.91	0.570
1074.32	0.400
1074.74	0.271
1075.15	0.432
1075.57	0.284
1075.98	0.524
1076.40	0.314
1076.81	0.417
1077.22	0.496
1077.64	0.461
1078.05	0.485
1078.47	0.471
1078.88	0.437
1079.30	0.703
1079.71	-0.000
1080.12	0.796
1080.54	1.575
1080.95	0.749
1081.37	-0.000
1081.78	0.547
1082.19	0.565
1082.61	1.476
1083.02	-0.000
1083.44	-0.000
1083.85	0.762
1084.26	-0.000
1084.68	-0.000
1085.09	0.625
1085.50	-0.000
1085.92	-0.000
1086.33	-0.000
1086.74	0.847
1087.16	-0.000
1087.57	-0.000
1087.98	0.966
1088.40	-0.000
1088.81	-0.000
1089.22	-0.000
1089.64	-0.000
1090.05	-0.000
1090.46	-0.000
1090.88	-0.000
1091.29	0.707
1091.70	-0.000
1092.12	-0.000
1092.53	-0.000
1092.94	-0.000
1093.36	-0.000
1093.77	-0.000
1094.18	0.382
1094.59	-0.000
1095.01	-0.000
1095.42	-0.000
1095.83	-0.000
1096.25	-0.000
1096.66	-0.000
1097.07	-0.000
1097.48	-0.000
1097.90	-0.000
1098.31	-0.000
1098.72	-0.000
1099.13	-0.000
>>>>>End Processed Spectral Data<<<<<
