SpectraSuite Data File
++++++++++++++++++++++++++++++++++++
Date: Sun Apr 24 18:03:24 CEST 2016
User: spectrasuite
Dark Spectrum Present: Yes
Reference Spectrum Present: Yes
Number of Sampled Component Spectra: 1
Spectrometers: HR+C0708
Integration Time (usec): 1000 (HR+C0708)
Spectra Averaged: 10 (HR+C0708)
Boxcar Smoothing: 0 (HR+C0708)
Correct for Electrical Dark: No (HR+C0708)
Strobe/Lamp Enabled: No (HR+C0708)
Correct for Detector Non-linearity: No (HR+C0708)
Correct for Stray Light: No (HR+C0708)
Number of Pixels in Processed Spectrum: 2048
>>>>>Begin Processed Spectral Data<<<<<
188.76	-0.000
189.23	-0.000
189.70	-0.000
190.17	-0.000
190.64	-0.000
191.12	-0.000
191.59	-0.000
192.06	-0.000
192.53	-0.000
193.01	-0.000
193.48	-0.000
193.95	-0.000
194.42	-0.000
194.90	-0.000
195.37	-0.000
195.84	-0.000
196.31	-0.000
196.78	-0.000
197.26	-0.000
197.73	-0.000
198.20	-0.000
198.67	-0.000
199.14	-0.000
199.62	-0.000
200.09	-0.000
200.56	-0.000
201.03	-0.000
201.50	-0.000
201.97	-0.000
202.45	-0.000
202.92	1.399
203.39	-0.000
203.86	-0.000
204.33	-0.000
204.80	-0.000
205.28	-0.000
205.75	-0.000
206.22	-0.000
206.69	-0.000
207.16	-0.000
207.63	1.607
208.11	1.008
208.58	1.828
209.05	1.111
209.52	1.867
209.99	-0.000
210.46	-0.000
210.93	-0.000
211.41	1.378
211.88	-0.000
212.35	-0.000
212.82	-0.000
213.29	-0.000
213.76	-0.000
214.23	-0.000
214.70	-0.000
215.18	-0.000
215.65	-0.000
216.12	2.789
216.59	-0.000
217.06	-0.000
217.53	-0.000
218.00	1.052
218.47	1.425
218.94	-0.000
219.41	-0.000
219.89	-0.000
220.36	-0.000
220.83	-0.000
221.30	-0.000
221.77	-0.000
222.24	-0.000
222.71	-0.000
223.18	-0.000
223.65	-0.000
224.12	-0.000
224.59	-0.000
225.06	-0.000
225.54	-0.000
226.01	-0.000
226.48	-0.000
226.95	-0.000
227.42	-0.000
227.89	-0.000
228.36	1.478
228.83	-0.000
229.30	-0.000
229.77	-0.000
230.24	1.891
230.71	-0.000
231.18	-0.000
231.65	1.831
232.12	-0.000
232.59	-0.000
233.06	-0.000
233.53	2.109
234.00	2.384
234.47	-0.000
234.94	-0.000
235.41	3.473
235.88	-0.000
236.35	-0.000
236.82	3.592
237.29	2.616
237.76	-0.000
238.23	-0.000
238.70	2.758
239.17	3.317
239.64	-0.000
240.11	-0.000
240.58	-0.000
241.05	-0.000
241.52	-0.000
241.99	3.917
242.46	-0.000
242.93	-0.000
243.40	-0.000
243.87	2.618
244.34	2.693
244.81	-0.000
245.28	-0.000
245.75	-0.000
246.22	-0.000
246.69	-0.000
247.16	3.511
247.63	3.307
248.10	-0.000
248.57	-0.000
249.04	3.213
249.51	-0.000
249.98	-0.000
250.45	3.145
250.92	3.386
251.39	-0.000
251.85	3.351
252.32	-0.000
252.79	-0.000
253.26	-0.000
253.73	-0.000
254.20	4.138
254.67	3.129
255.14	3.268
255.61	3.049
256.08	2.822
256.55	-0.000
257.02	2.849
257.49	2.925
257.95	2.662
258.42	2.874
258.89	2.655
259.36	2.586
259.83	2.712
260.30	2.690
260.77	2.566
261.24	2.488
261.71	2.830
262.17	2.449
262.64	2.315
263.11	2.527
263.58	2.559
264.05	2.330
264.52	2.346
264.99	2.365
265.46	2.318
265.92	2.272
266.39	2.246
266.86	2.367
267.33	2.229
267.80	2.162
268.27	2.239
268.74	2.179
269.20	2.169
269.67	2.119
270.14	2.068
270.61	2.083
271.08	2.044
271.55	2.102
272.01	2.013
272.48	1.989
272.95	1.981
273.42	2.047
273.89	1.986
274.36	1.975
274.82	1.944
275.29	1.935
275.76	1.909
276.23	1.868
276.70	1.925
277.16	1.883
277.63	1.833
278.10	1.830
278.57	1.865
279.04	1.842
279.50	1.812
279.97	1.819
280.44	1.781
280.91	1.774
281.38	1.751
281.84	1.790
282.31	1.777
282.78	1.752
283.25	1.716
283.72	1.724
284.18	1.711
284.65	1.711
285.12	1.686
285.59	1.657
286.05	1.654
286.52	1.653
286.99	1.659
287.46	1.642
287.92	1.627
288.39	1.623
288.86	1.639
289.33	1.601
289.79	1.599
290.26	1.600
290.73	1.570
291.20	1.572
291.66	1.569
292.13	1.571
292.60	1.544
293.07	1.528
293.53	1.511
294.00	1.511
294.47	1.505
294.93	1.510
295.40	1.500
295.87	1.496
296.34	1.478
296.80	1.466
297.27	1.474
297.74	1.455
298.20	1.453
298.67	1.428
299.14	1.430
299.60	1.417
300.07	1.420
300.54	1.411
301.01	1.390
301.47	1.372
301.94	1.378
302.41	1.375
302.87	1.362
303.34	1.372
303.81	1.357
304.27	1.347
304.74	1.333
305.21	1.325
305.67	1.325
306.14	1.300
306.61	1.312
307.07	1.309
307.54	1.313
308.01	1.287
308.47	1.271
308.94	1.290
309.40	1.279
309.87	1.254
310.34	1.264
310.80	1.265
311.27	1.239
311.74	1.232
312.20	1.236
312.67	1.232
313.13	1.215
313.60	1.223
314.07	1.223
314.53	1.204
315.00	1.199
315.47	1.204
315.93	1.201
316.40	1.182
316.86	1.183
317.33	1.185
317.80	1.174
318.26	1.164
318.73	1.165
319.19	1.163
319.66	1.154
320.13	1.139
320.59	1.145
321.06	1.138
321.52	1.134
321.99	1.129
322.45	1.124
322.92	1.114
323.39	1.111
323.85	1.109
324.32	1.108
324.78	1.095
325.25	1.105
325.71	1.102
326.18	1.081
326.64	1.078
327.11	1.081
327.58	1.073
328.04	1.076
328.51	1.074
328.97	1.064
329.44	1.058
329.90	1.057
330.37	1.056
330.83	1.049
331.30	1.048
331.76	1.037
332.23	1.036
332.69	1.032
333.16	1.018
333.62	1.014
334.09	1.014
334.56	1.013
335.02	1.000
335.49	1.002
335.95	1.001
336.42	0.989
336.88	0.985
337.35	0.981
337.81	0.982
338.28	0.971
338.74	0.980
339.20	0.975
339.67	0.964
340.13	0.962
340.60	0.958
341.06	0.952
341.53	0.947
341.99	0.947
342.46	0.933
342.92	0.929
343.39	0.927
343.85	0.921
344.32	0.916
344.78	0.911
345.25	0.905
345.71	0.904
346.17	0.900
346.64	0.901
347.10	0.889
347.57	0.882
348.03	0.879
348.50	0.864
348.96	0.864
349.43	0.855
349.89	0.846
350.35	0.848
350.82	0.842
351.28	0.838
351.75	0.821
352.21	0.816
352.67	0.815
353.14	0.809
353.60	0.795
354.07	0.792
354.53	0.785
355.00	0.766
355.46	0.766
355.92	0.763
356.39	0.748
356.85	0.744
357.31	0.738
357.78	0.727
358.24	0.718
358.71	0.712
359.17	0.706
359.63	0.704
360.10	0.693
360.56	0.691
361.03	0.693
361.49	0.681
361.95	0.678
362.42	0.674
362.88	0.674
363.34	0.664
363.81	0.658
364.27	0.656
364.73	0.654
365.20	0.651
365.66	0.647
366.12	0.640
366.59	0.637
367.05	0.637
367.51	0.636
367.98	0.631
368.44	0.624
368.90	0.627
369.37	0.625
369.83	0.622
370.29	0.617
370.76	0.619
371.22	0.614
371.68	0.613
372.15	0.603
372.61	0.603
373.07	0.602
373.54	0.603
374.00	0.597
374.46	0.599
374.92	0.594
375.39	0.593
375.85	0.593
376.31	0.591
376.78	0.586
377.24	0.587
377.70	0.584
378.16	0.582
378.63	0.577
379.09	0.578
379.55	0.578
380.01	0.577
380.48	0.577
380.94	0.572
381.40	0.572
381.87	0.567
382.33	0.564
382.79	0.563
383.25	0.566
383.72	0.567
384.18	0.562
384.64	0.554
385.10	0.556
385.56	0.554
386.03	0.554
386.49	0.554
386.95	0.550
387.41	0.548
387.88	0.544
388.34	0.545
388.80	0.542
389.26	0.542
389.72	0.542
390.19	0.539
390.65	0.536
391.11	0.536
391.57	0.538
392.04	0.531
392.50	0.533
392.96	0.529
393.42	0.525
393.88	0.525
394.34	0.528
394.81	0.524
395.27	0.521
395.73	0.517
396.19	0.523
396.65	0.520
397.12	0.514
397.58	0.513
398.04	0.514
398.50	0.508
398.96	0.512
399.42	0.510
399.89	0.507
400.35	0.507
400.81	0.505
401.27	0.506
401.73	0.502
402.19	0.500
402.65	0.501
403.12	0.497
403.58	0.492
404.04	0.492
404.50	0.492
404.96	0.494
405.42	0.494
405.88	0.489
406.34	0.489
406.81	0.487
407.27	0.485
407.73	0.485
408.19	0.480
408.65	0.480
409.11	0.478
409.57	0.481
410.03	0.477
410.49	0.477
410.96	0.476
411.42	0.470
411.88	0.470
412.34	0.468
412.80	0.471
413.26	0.467
413.72	0.468
414.18	0.464
414.64	0.465
415.10	0.464
415.56	0.465
416.02	0.465
416.48	0.462
416.95	0.457
417.41	0.459
417.87	0.453
418.33	0.456
418.79	0.450
419.25	0.453
419.71	0.453
420.17	0.447
420.63	0.447
421.09	0.446
421.55	0.446
422.01	0.448
422.47	0.448
422.93	0.445
423.39	0.444
423.85	0.444
424.31	0.442
424.77	0.440
425.23	0.440
425.69	0.439
426.15	0.439
426.61	0.435
427.07	0.435
427.53	0.435
427.99	0.432
428.45	0.427
428.91	0.428
429.37	0.425
429.83	0.430
430.29	0.425
430.75	0.427
431.21	0.431
431.67	0.429
432.13	0.427
432.59	0.418
433.05	0.424
433.51	0.419
433.97	0.420
434.43	0.421
434.89	0.420
435.35	0.419
435.81	0.415
436.27	0.414
436.73	0.411
437.19	0.411
437.65	0.415
438.11	0.416
438.57	0.409
439.03	0.406
439.48	0.405
439.94	0.409
440.40	0.404
440.86	0.408
441.32	0.403
441.78	0.408
442.24	0.404
442.70	0.403
443.16	0.402
443.62	0.398
444.08	0.400
444.54	0.398
444.99	0.397
445.45	0.398
445.91	0.389
446.37	0.394
446.83	0.389
447.29	0.392
447.75	0.391
448.21	0.393
448.67	0.390
449.12	0.387
449.58	0.391
450.04	0.386
450.50	0.386
450.96	0.386
451.42	0.383
451.88	0.379
452.34	0.385
452.79	0.381
453.25	0.384
453.71	0.380
454.17	0.380
454.63	0.377
455.09	0.378
455.55	0.375
456.00	0.374
456.46	0.373
456.92	0.372
457.38	0.375
457.84	0.372
458.30	0.372
458.75	0.374
459.21	0.365
459.67	0.372
460.13	0.371
460.59	0.367
461.04	0.365
461.50	0.365
461.96	0.365
462.42	0.360
462.88	0.364
463.33	0.360
463.79	0.358
464.25	0.360
464.71	0.361
465.17	0.359
465.62	0.356
466.08	0.359
466.54	0.357
467.00	0.359
467.46	0.359
467.91	0.356
468.37	0.353
468.83	0.355
469.29	0.352
469.74	0.353
470.20	0.352
470.66	0.351
471.12	0.349
471.57	0.350
472.03	0.347
472.49	0.349
472.95	0.349
473.40	0.345
473.86	0.344
474.32	0.344
474.78	0.345
475.23	0.345
475.69	0.345
476.15	0.343
476.60	0.345
477.06	0.342
477.52	0.340
477.98	0.339
478.43	0.339
478.89	0.341
479.35	0.338
479.80	0.339
480.26	0.335
480.72	0.335
481.18	0.337
481.63	0.335
482.09	0.333
482.55	0.332
483.00	0.331
483.46	0.332
483.92	0.327
484.37	0.331
484.83	0.327
485.29	0.327
485.74	0.327
486.20	0.328
486.66	0.329
487.11	0.326
487.57	0.325
488.03	0.325
488.48	0.323
488.94	0.321
489.40	0.321
489.85	0.325
490.31	0.322
490.77	0.320
491.22	0.322
491.68	0.319
492.13	0.318
492.59	0.318
493.05	0.320
493.50	0.319
493.96	0.317
494.42	0.314
494.87	0.313
495.33	0.313
495.78	0.316
496.24	0.317
496.70	0.314
497.15	0.313
497.61	0.313
498.06	0.311
498.52	0.311
498.98	0.308
499.43	0.312
499.89	0.309
500.34	0.308
500.80	0.307
501.25	0.308
501.71	0.307
502.17	0.307
502.62	0.309
503.08	0.304
503.53	0.302
503.99	0.302
504.44	0.305
504.90	0.304
505.36	0.301
505.81	0.303
506.27	0.302
506.72	0.304
507.18	0.301
507.63	0.301
508.09	0.301
508.54	0.298
509.00	0.297
509.45	0.299
509.91	0.295
510.36	0.297
510.82	0.296
511.27	0.295
511.73	0.295
512.19	0.295
512.64	0.296
513.10	0.294
513.55	0.295
514.01	0.291
514.46	0.290
514.92	0.290
515.37	0.289
515.83	0.294
516.28	0.289
516.73	0.289
517.19	0.288
517.64	0.286
518.10	0.287
518.55	0.286
519.01	0.288
519.46	0.287
519.92	0.285
520.37	0.283
520.83	0.282
521.28	0.282
521.74	0.284
522.19	0.286
522.65	0.284
523.10	0.283
523.55	0.282
524.01	0.286
524.46	0.281
524.92	0.279
525.37	0.280
525.83	0.279
526.28	0.278
526.73	0.280
527.19	0.281
527.64	0.281
528.10	0.276
528.55	0.274
529.01	0.279
529.46	0.277
529.91	0.273
530.37	0.276
530.82	0.276
531.28	0.272
531.73	0.274
532.18	0.272
532.64	0.274
533.09	0.274
533.54	0.272
534.00	0.270
534.45	0.271
534.91	0.272
535.36	0.271
535.81	0.272
536.27	0.267
536.72	0.270
537.17	0.269
537.63	0.269
538.08	0.267
538.54	0.269
538.99	0.267
539.44	0.266
539.90	0.265
540.35	0.265
540.80	0.266
541.26	0.265
541.71	0.265
542.16	0.265
542.62	0.265
543.07	0.265
543.52	0.265
543.98	0.264
544.43	0.263
544.88	0.263
545.34	0.263
545.79	0.262
546.24	0.261
546.69	0.264
547.15	0.261
547.60	0.260
548.05	0.262
548.51	0.260
548.96	0.259
549.41	0.262
549.86	0.258
550.32	0.261
550.77	0.260
551.22	0.260
551.68	0.258
552.13	0.257
552.58	0.258
553.03	0.258
553.49	0.259
553.94	0.259
554.39	0.257
554.84	0.257
555.30	0.256
555.75	0.255
556.20	0.253
556.65	0.255
557.11	0.257
557.56	0.254
558.01	0.257
558.46	0.258
558.92	0.254
559.37	0.256
559.82	0.254
560.27	0.254
560.72	0.253
561.18	0.251
561.63	0.254
562.08	0.252
562.53	0.251
562.99	0.251
563.44	0.252
563.89	0.250
564.34	0.251
564.79	0.250
565.25	0.251
565.70	0.249
566.15	0.247
566.60	0.249
567.05	0.248
567.50	0.249
567.96	0.247
568.41	0.250
568.86	0.247
569.31	0.247
569.76	0.247
570.21	0.248
570.67	0.248
571.12	0.246
571.57	0.248
572.02	0.247
572.47	0.244
572.92	0.246
573.37	0.246
573.83	0.244
574.28	0.243
574.73	0.246
575.18	0.244
575.63	0.245
576.08	0.241
576.53	0.245
576.98	0.245
577.44	0.241
577.89	0.244
578.34	0.243
578.79	0.242
579.24	0.242
579.69	0.244
580.14	0.241
580.59	0.241
581.04	0.241
581.49	0.241
581.95	0.240
582.40	0.241
582.85	0.240
583.30	0.240
583.75	0.238
584.20	0.240
584.65	0.242
585.10	0.239
585.55	0.240
586.00	0.241
586.45	0.241
586.90	0.242
587.35	0.242
587.80	0.241
588.25	0.240
588.71	0.240
589.16	0.240
589.61	0.240
590.06	0.238
590.51	0.242
590.96	0.239
591.41	0.240
591.86	0.241
592.31	0.240
592.76	0.240
593.21	0.241
593.66	0.241
594.11	0.241
594.56	0.241
595.01	0.238
595.46	0.239
595.91	0.240
596.36	0.239
596.81	0.239
597.26	0.241
597.71	0.240
598.16	0.238
598.61	0.240
599.06	0.239
599.51	0.242
599.96	0.240
600.41	0.241
600.86	0.240
601.31	0.240
601.76	0.239
602.21	0.240
602.65	0.243
603.10	0.239
603.55	0.240
604.00	0.240
604.45	0.240
604.90	0.241
605.35	0.240
605.80	0.239
606.25	0.242
606.70	0.242
607.15	0.240
607.60	0.240
608.05	0.238
608.50	0.239
608.95	0.238
609.39	0.238
609.84	0.239
610.29	0.238
610.74	0.239
611.19	0.237
611.64	0.238
612.09	0.237
612.54	0.237
612.99	0.238
613.44	0.237
613.88	0.240
614.33	0.237
614.78	0.235
615.23	0.236
615.68	0.237
616.13	0.238
616.58	0.235
617.03	0.236
617.47	0.238
617.92	0.236
618.37	0.235
618.82	0.236
619.27	0.235
619.72	0.235
620.17	0.235
620.61	0.234
621.06	0.233
621.51	0.236
621.96	0.233
622.41	0.234
622.86	0.235
623.30	0.234
623.75	0.235
624.20	0.235
624.65	0.234
625.10	0.234
625.54	0.234
625.99	0.234
626.44	0.234
626.89	0.235
627.34	0.234
627.78	0.232
628.23	0.233
628.68	0.235
629.13	0.233
629.58	0.233
630.02	0.234
630.47	0.234
630.92	0.234
631.37	0.233
631.81	0.233
632.26	0.233
632.71	0.234
633.16	0.233
633.61	0.233
634.05	0.234
634.50	0.233
634.95	0.234
635.40	0.234
635.84	0.233
636.29	0.234
636.74	0.235
637.18	0.235
637.63	0.234
638.08	0.233
638.53	0.235
638.97	0.234
639.42	0.237
639.87	0.237
640.32	0.235
640.76	0.234
641.21	0.236
641.66	0.237
642.10	0.236
642.55	0.235
643.00	0.234
643.44	0.236
643.89	0.235
644.34	0.236
644.79	0.235
645.23	0.236
645.68	0.237
646.13	0.237
646.57	0.238
647.02	0.235
647.47	0.239
647.91	0.238
648.36	0.238
648.81	0.238
649.25	0.238
649.70	0.236
650.15	0.236
650.59	0.235
651.04	0.236
651.48	0.239
651.93	0.235
652.38	0.236
652.82	0.237
653.27	0.237
653.72	0.237
654.16	0.237
654.61	0.238
655.06	0.236
655.50	0.236
655.95	0.235
656.39	0.228
656.84	0.233
657.29	0.239
657.73	0.236
658.18	0.236
658.62	0.237
659.07	0.234
659.52	0.235
659.96	0.236
660.41	0.235
660.85	0.235
661.30	0.235
661.74	0.234
662.19	0.233
662.64	0.234
663.08	0.231
663.53	0.232
663.97	0.230
664.42	0.229
664.86	0.230
665.31	0.231
665.75	0.228
666.20	0.229
666.65	0.229
667.09	0.227
667.54	0.229
667.98	0.227
668.43	0.226
668.87	0.225
669.32	0.224
669.76	0.223
670.21	0.222
670.65	0.217
671.10	0.221
671.54	0.220
671.99	0.216
672.43	0.215
672.88	0.217
673.32	0.216
673.77	0.212
674.21	0.213
674.66	0.214
675.10	0.209
675.55	0.208
675.99	0.210
676.44	0.205
676.88	0.208
677.33	0.205
677.77	0.204
678.22	0.202
678.66	0.199
679.11	0.197
679.55	0.200
679.99	0.197
680.44	0.196
680.88	0.194
681.33	0.193
681.77	0.191
682.22	0.191
682.66	0.190
683.11	0.189
683.55	0.187
683.99	0.186
684.44	0.183
684.88	0.182
685.33	0.183
685.77	0.181
686.21	0.180
686.66	0.179
687.10	0.178
687.55	0.175
687.99	0.178
688.44	0.178
688.88	0.173
689.32	0.175
689.77	0.172
690.21	0.174
690.65	0.172
691.10	0.172
691.54	0.171
691.99	0.170
692.43	0.169
692.87	0.168
693.32	0.169
693.76	0.167
694.20	0.168
694.65	0.168
695.09	0.167
695.53	0.164
695.98	0.166
696.42	0.165
696.86	0.164
697.31	0.162
697.75	0.164
698.19	0.161
698.64	0.159
699.08	0.161
699.52	0.160
699.97	0.159
700.41	0.161
700.85	0.159
701.30	0.160
701.74	0.159
702.18	0.158
702.63	0.159
703.07	0.159
703.51	0.158
703.96	0.157
704.40	0.158
704.84	0.159
705.28	0.157
705.73	0.157
706.17	0.157
706.61	0.155
707.06	0.155
707.50	0.157
707.94	0.155
708.38	0.153
708.83	0.155
709.27	0.154
709.71	0.152
710.15	0.155
710.60	0.153
711.04	0.152
711.48	0.154
711.92	0.154
712.37	0.153
712.81	0.154
713.25	0.152
713.69	0.154
714.13	0.154
714.58	0.154
715.02	0.153
715.46	0.151
715.90	0.151
716.35	0.149
716.79	0.153
717.23	0.153
717.67	0.153
718.11	0.153
718.56	0.151
719.00	0.153
719.44	0.152
719.88	0.151
720.32	0.151
720.76	0.151
721.21	0.151
721.65	0.150
722.09	0.150
722.53	0.150
722.97	0.150
723.41	0.149
723.86	0.152
724.30	0.151
724.74	0.152
725.18	0.154
725.62	0.149
726.06	0.149
726.50	0.147
726.95	0.150
727.39	0.149
727.83	0.149
728.27	0.150
728.71	0.150
729.15	0.150
729.59	0.153
730.03	0.148
730.48	0.150
730.92	0.149
731.36	0.149
731.80	0.150
732.24	0.151
732.68	0.147
733.12	0.147
733.56	0.150
734.00	0.147
734.44	0.149
734.89	0.151
735.33	0.152
735.77	0.153
736.21	0.150
736.65	0.148
737.09	0.151
737.53	0.152
737.97	0.151
738.41	0.151
738.85	0.153
739.29	0.152
739.73	0.151
740.17	0.150
740.61	0.148
741.05	0.150
741.49	0.151
741.93	0.150
742.37	0.146
742.81	0.147
743.26	0.148
743.70	0.149
744.14	0.148
744.58	0.148
745.02	0.149
745.46	0.150
745.90	0.149
746.34	0.148
746.78	0.148
747.22	0.148
747.66	0.149
748.10	0.148
748.54	0.146
748.98	0.145
749.42	0.147
749.86	0.147
750.29	0.146
750.73	0.145
751.17	0.145
751.61	0.146
752.05	0.148
752.49	0.144
752.93	0.143
753.37	0.143
753.81	0.145
754.25	0.144
754.69	0.142
755.13	0.144
755.57	0.143
756.01	0.142
756.45	0.145
756.89	0.142
757.33	0.145
757.77	0.144
758.21	0.141
758.64	0.143
759.08	0.136
759.52	0.145
759.96	0.146
760.40	0.145
760.84	0.140
761.28	0.142
761.72	0.143
762.16	0.143
762.60	0.143
763.03	0.141
763.47	0.142
763.91	0.144
764.35	0.141
764.79	0.141
765.23	0.139
765.67	0.138
766.11	0.138
766.54	0.137
766.98	0.142
767.42	0.141
767.86	0.139
768.30	0.139
768.74	0.142
769.17	0.141
769.61	0.141
770.05	0.140
770.49	0.140
770.93	0.139
771.37	0.138
771.80	0.140
772.24	0.137
772.68	0.139
773.12	0.139
773.56	0.137
774.00	0.137
774.43	0.138
774.87	0.136
775.31	0.137
775.75	0.137
776.19	0.138
776.62	0.138
777.06	0.139
777.50	0.137
777.94	0.140
778.37	0.134
778.81	0.136
779.25	0.140
779.69	0.139
780.13	0.138
780.56	0.136
781.00	0.140
781.44	0.134
781.88	0.138
782.31	0.135
782.75	0.135
783.19	0.141
783.63	0.136
784.06	0.132
784.50	0.138
784.94	0.135
785.37	0.137
785.81	0.136
786.25	0.134
786.69	0.131
787.12	0.134
787.56	0.134
788.00	0.134
788.43	0.137
788.87	0.136
789.31	0.136
789.75	0.134
790.18	0.133
790.62	0.133
791.06	0.132
791.49	0.134
791.93	0.135
792.37	0.138
792.80	0.134
793.24	0.133
793.68	0.134
794.11	0.134
794.55	0.137
794.99	0.134
795.42	0.134
795.86	0.135
796.30	0.131
796.73	0.132
797.17	0.132
797.61	0.131
798.04	0.131
798.48	0.134
798.91	0.132
799.35	0.132
799.79	0.137
800.22	0.134
800.66	0.131
801.10	0.133
801.53	0.134
801.97	0.138
802.40	0.135
802.84	0.132
803.28	0.129
803.71	0.130
804.15	0.130
804.58	0.130
805.02	0.131
805.46	0.130
805.89	0.132
806.33	0.136
806.76	0.129
807.20	0.132
807.63	0.131
808.07	0.135
808.51	0.128
808.94	0.127
809.38	0.130
809.81	0.129
810.25	0.131
810.68	0.130
811.12	0.133
811.55	0.131
811.99	0.130
812.42	0.132
812.86	0.127
813.29	0.128
813.73	0.129
814.17	0.128
814.60	0.131
815.04	0.129
815.47	0.128
815.91	0.131
816.34	0.128
816.78	0.129
817.21	0.133
817.65	0.130
818.08	0.126
818.52	0.135
818.95	0.132
819.39	0.130
819.82	0.128
820.25	0.134
820.69	0.127
821.12	0.131
821.56	0.127
821.99	0.128
822.43	0.124
822.86	0.132
823.30	0.134
823.73	0.128
824.17	0.126
824.60	0.127
825.04	0.129
825.47	0.125
825.90	0.127
826.34	0.130
826.77	0.127
827.21	0.130
827.64	0.130
828.08	0.130
828.51	0.131
828.94	0.128
829.38	0.123
829.81	0.132
830.25	0.134
830.68	0.131
831.11	0.130
831.55	0.132
831.98	0.132
832.42	0.131
832.85	0.137
833.28	0.133
833.72	0.136
834.15	0.130
834.58	0.135
835.02	0.135
835.45	0.131
835.88	0.134
836.32	0.136
836.75	0.129
837.19	0.135
837.62	0.134
838.05	0.131
838.49	0.131
838.92	0.132
839.35	0.135
839.79	0.134
840.22	0.136
840.65	0.133
841.09	0.132
841.52	0.132
841.95	0.132
842.39	0.136
842.82	0.132
843.25	0.133
843.68	0.132
844.12	0.133
844.55	0.130
844.98	0.135
845.42	0.129
845.85	0.127
846.28	0.131
846.71	0.129
847.15	0.135
847.58	0.132
848.01	0.131
848.45	0.136
848.88	0.139
849.31	0.133
849.74	0.133
850.18	0.132
850.61	0.131
851.04	0.136
851.47	0.133
851.91	0.137
852.34	0.132
852.77	0.137
853.20	0.133
853.64	0.134
854.07	0.136
854.50	0.132
854.93	0.141
855.36	0.140
855.80	0.135
856.23	0.134
856.66	0.137
857.09	0.132
857.52	0.132
857.96	0.129
858.39	0.134
858.82	0.125
859.25	0.133
859.68	0.138
860.12	0.129
860.55	0.130
860.98	0.133
861.41	0.131
861.84	0.128
862.27	0.131
862.71	0.133
863.14	0.131
863.57	0.129
864.00	0.128
864.43	0.140
864.86	0.132
865.30	0.136
865.73	0.141
866.16	0.138
866.59	0.134
867.02	0.136
867.45	0.135
867.88	0.137
868.31	0.137
868.75	0.137
869.18	0.140
869.61	0.136
870.04	0.132
870.47	0.140
870.90	0.137
871.33	0.139
871.76	0.139
872.19	0.142
872.62	0.133
873.06	0.131
873.49	0.137
873.92	0.135
874.35	0.134
874.78	0.135
875.21	0.136
875.64	0.129
876.07	0.139
876.50	0.138
876.93	0.138
877.36	0.137
877.79	0.137
878.22	0.137
878.65	0.138
879.08	0.136
879.51	0.141
879.94	0.135
880.37	0.139
880.80	0.138
881.23	0.133
881.67	0.144
882.10	0.136
882.53	0.135
882.96	0.140
883.39	0.135
883.82	0.133
884.25	0.133
884.68	0.139
885.11	0.136
885.54	0.136
885.97	0.143
886.39	0.137
886.82	0.138
887.25	0.139
887.68	0.134
888.11	0.134
888.54	0.135
888.97	0.143
889.40	0.138
889.83	0.134
890.26	0.134
890.69	0.137
891.12	0.139
891.55	0.139
891.98	0.136
892.41	0.136
892.84	0.133
893.27	0.131
893.70	0.135
894.13	0.141
894.56	0.136
894.98	0.138
895.41	0.140
895.84	0.138
896.27	0.137
896.70	0.136
897.13	0.137
897.56	0.137
897.99	0.137
898.42	0.137
898.85	0.143
899.27	0.136
899.70	0.139
900.13	0.137
900.56	0.141
900.99	0.138
901.42	0.139
901.85	0.137
902.28	0.136
902.70	0.137
903.13	0.139
903.56	0.143
903.99	0.135
904.42	0.141
904.85	0.139
905.27	0.137
905.70	0.143
906.13	0.141
906.56	0.139
906.99	0.137
907.42	0.138
907.84	0.137
908.27	0.142
908.70	0.138
909.13	0.138
909.56	0.142
909.98	0.138
910.41	0.135
910.84	0.140
911.27	0.140
911.70	0.136
912.12	0.136
912.55	0.138
912.98	0.137
913.41	0.141
913.84	0.138
914.26	0.138
914.69	0.137
915.12	0.139
915.55	0.137
915.97	0.137
916.40	0.140
916.83	0.137
917.26	0.139
917.68	0.138
918.11	0.140
918.54	0.138
918.97	0.141
919.39	0.134
919.82	0.138
920.25	0.136
920.67	0.139
921.10	0.141
921.53	0.142
921.96	0.144
922.38	0.141
922.81	0.138
923.24	0.142
923.66	0.143
924.09	0.139
924.52	0.145
924.94	0.143
925.37	0.143
925.80	0.146
926.22	0.143
926.65	0.146
927.08	0.146
927.50	0.146
927.93	0.147
928.36	0.144
928.78	0.143
929.21	0.143
929.64	0.147
930.06	0.151
930.49	0.149
930.92	0.153
931.34	0.151
931.77	0.154
932.20	0.155
932.62	0.153
933.05	0.154
933.47	0.159
933.90	0.160
934.33	0.155
934.75	0.156
935.18	0.162
935.61	0.160
936.03	0.161
936.46	0.161
936.88	0.164
937.31	0.172
937.73	0.163
938.16	0.164
938.59	0.174
939.01	0.176
939.44	0.173
939.86	0.177
940.29	0.182
940.71	0.179
941.14	0.183
941.57	0.185
941.99	0.180
942.42	0.187
942.84	0.189
943.27	0.196
943.69	0.194
944.12	0.188
944.54	0.199
944.97	0.198
945.39	0.197
945.82	0.197
946.24	0.207
946.67	0.209
947.09	0.205
947.52	0.202
947.94	0.210
948.37	0.207
948.79	0.204
949.22	0.223
949.64	0.212
950.07	0.225
950.49	0.219
950.92	0.223
951.34	0.229
951.77	0.227
952.19	0.228
952.62	0.244
953.04	0.236
953.47	0.238
953.89	0.246
954.32	0.250
954.74	0.251
955.17	0.245
955.59	0.260
956.01	0.256
956.44	0.259
956.86	0.265
957.29	0.266
957.71	0.270
958.14	0.267
958.56	0.266
958.98	0.281
959.41	0.272
959.83	0.276
960.26	0.277
960.68	0.283
961.10	0.283
961.53	0.286
961.95	0.287
962.38	0.281
962.80	0.282
963.22	0.289
963.65	0.288
964.07	0.284
964.50	0.285
964.92	0.293
965.34	0.287
965.77	0.285
966.19	0.296
966.61	0.292
967.04	0.296
967.46	0.290
967.88	0.304
968.31	0.293
968.73	0.295
969.15	0.294
969.58	0.297
970.00	0.287
970.42	0.291
970.85	0.294
971.27	0.293
971.69	0.291
972.12	0.298
972.54	0.300
972.96	0.294
973.39	0.298
973.81	0.297
974.23	0.298
974.65	0.296
975.08	0.298
975.50	0.302
975.92	0.303
976.35	0.298
976.77	0.301
977.19	0.301
977.61	0.297
978.04	0.295
978.46	0.306
978.88	0.297
979.30	0.304
979.73	0.297
980.15	0.306
980.57	0.302
980.99	0.298
981.42	0.297
981.84	0.301
982.26	0.296
982.68	0.297
983.11	0.303
983.53	0.299
983.95	0.300
984.37	0.299
984.79	0.299
985.22	0.299
985.64	0.292
986.06	0.296
986.48	0.301
986.90	0.295
987.33	0.287
987.75	0.296
988.17	0.290
988.59	0.287
989.01	0.284
989.43	0.286
989.86	0.280
990.28	0.287
990.70	0.288
991.12	0.293
991.54	0.284
991.96	0.281
992.39	0.294
992.81	0.282
993.23	0.284
993.65	0.281
994.07	0.285
994.49	0.276
994.91	0.285
995.34	0.278
995.76	0.281
996.18	0.280
996.60	0.282
997.02	0.283
997.44	0.272
997.86	0.276
998.28	0.279
998.70	0.277
999.12	0.269
999.55	0.273
999.97	0.275
1000.39	0.276
1000.81	0.274
1001.23	0.274
1001.65	0.276
1002.07	0.274
1002.49	0.264
1002.91	0.267
1003.33	0.269
1003.75	0.263
1004.17	0.262
1004.59	0.259
1005.01	0.259
1005.43	0.266
1005.85	0.261
1006.28	0.260
1006.70	0.256
1007.12	0.262
1007.54	0.262
1007.96	0.260
1008.38	0.255
1008.80	0.257
1009.22	0.248
1009.64	0.248
1010.06	0.252
1010.48	0.264
1010.90	0.260
1011.32	0.250
1011.74	0.243
1012.16	0.257
1012.58	0.248
1013.00	0.249
1013.42	0.236
1013.84	0.244
1014.26	0.237
1014.67	0.246
1015.09	0.245
1015.51	0.244
1015.93	0.233
1016.35	0.237
1016.77	0.246
1017.19	0.239
1017.61	0.241
1018.03	0.246
1018.45	0.245
1018.87	0.242
1019.29	0.234
1019.71	0.244
1020.13	0.242
1020.55	0.228
1020.97	0.225
1021.38	0.226
1021.80	0.220
1022.22	0.234
1022.64	0.224
1023.06	0.226
1023.48	0.216
1023.90	0.213
1024.32	0.214
1024.74	0.222
1025.15	0.218
1025.57	0.218
1025.99	0.218
1026.41	0.225
1026.83	0.213
1027.25	0.221
1027.67	0.223
1028.08	0.203
1028.50	0.229
1028.92	0.216
1029.34	0.211
1029.76	0.218
1030.18	0.219
1030.60	0.230
1031.01	0.211
1031.43	0.221
1031.85	0.218
1032.27	0.225
1032.69	0.197
1033.10	0.217
1033.52	0.219
1033.94	0.212
1034.36	0.201
1034.78	0.208
1035.19	0.224
1035.61	0.197
1036.03	0.199
1036.45	0.220
1036.87	0.192
1037.28	0.202
1037.70	0.192
1038.12	0.203
1038.54	0.196
1038.95	0.196
1039.37	0.214
1039.79	0.219
1040.21	0.205
1040.62	0.209
1041.04	0.209
1041.46	0.190
1041.88	0.196
1042.29	0.208
1042.71	0.207
1043.13	0.203
1043.55	0.186
1043.96	0.216
1044.38	0.203
1044.80	0.204
1045.21	0.203
1045.63	0.198
1046.05	0.198
1046.47	0.191
1046.88	0.199
1047.30	0.207
1047.72	0.187
1048.13	0.188
1048.55	0.202
1048.97	0.197
1049.38	0.187
1049.80	0.184
1050.22	0.217
1050.63	0.174
1051.05	0.202
1051.47	0.213
1051.88	0.212
1052.30	0.198
1052.72	0.191
1053.13	0.196
1053.55	0.209
1053.97	0.179
1054.38	0.184
1054.80	0.204
1055.21	0.172
1055.63	0.207
1056.05	0.194
1056.46	0.223
1056.88	0.197
1057.29	0.186
1057.71	0.206
1058.13	0.228
1058.54	0.205
1058.96	0.216
1059.37	0.235
1059.79	0.212
1060.21	0.221
1060.62	0.263
1061.04	0.202
1061.45	0.198
1061.87	0.205
1062.28	0.262
1062.70	0.235
1063.12	0.198
1063.53	0.195
1063.95	0.235
1064.36	0.195
1064.78	0.258
1065.19	0.292
1065.61	0.264
1066.02	0.199
1066.44	0.346
1066.85	0.264
1067.27	0.246
1067.68	0.246
1068.10	0.292
1068.51	0.317
1068.93	0.294
1069.35	0.398
1069.76	0.322
1070.17	0.282
1070.59	0.364
1071.00	0.405
1071.42	0.369
1071.83	0.329
1072.25	0.389
1072.66	0.428
1073.08	0.554
1073.49	0.427
1073.91	0.463
1074.32	0.479
1074.74	0.380
1075.15	0.406
1075.57	0.332
1075.98	0.586
1076.40	0.350
1076.81	0.411
1077.22	0.475
1077.64	0.434
1078.05	0.643
1078.47	0.458
1078.88	1.076
1079.30	0.943
1079.71	-0.000
1080.12	1.398
1080.54	-0.000
1080.95	0.648
1081.37	-0.000
1081.78	0.762
1082.19	0.684
1082.61	2.430
1083.02	-0.000
1083.44	-0.000
1083.85	0.750
1084.26	-0.000
1084.68	-0.000
1085.09	0.718
1085.50	-0.000
1085.92	-0.000
1086.33	-0.000
1086.74	0.859
1087.16	-0.000
1087.57	-0.000
1087.98	-0.000
1088.40	1.176
1088.81	-0.000
1089.22	-0.000
1089.64	-0.000
1090.05	0.933
1090.46	-0.000
1090.88	-0.000
1091.29	-0.000
1091.70	-0.000
1092.12	-0.000
1092.53	-0.000
1092.94	-0.000
1093.36	-0.000
1093.77	-0.000
1094.18	-0.000
1094.59	-0.000
1095.01	-0.000
1095.42	-0.000
1095.83	-0.000
1096.25	-0.000
1096.66	-0.000
1097.07	-0.000
1097.48	-0.000
1097.90	-0.000
1098.31	-0.000
1098.72	-0.000
1099.13	-0.000
>>>>>End Processed Spectral Data<<<<<
