SpectraSuite Data File
++++++++++++++++++++++++++++++++++++
Date: Sun Apr 24 18:13:27 CEST 2016
User: spectrasuite
Dark Spectrum Present: Yes
Reference Spectrum Present: Yes
Number of Sampled Component Spectra: 1
Spectrometers: HR+C0708
Integration Time (usec): 1000 (HR+C0708)
Spectra Averaged: 10 (HR+C0708)
Boxcar Smoothing: 0 (HR+C0708)
Correct for Electrical Dark: No (HR+C0708)
Strobe/Lamp Enabled: No (HR+C0708)
Correct for Detector Non-linearity: No (HR+C0708)
Correct for Stray Light: No (HR+C0708)
Number of Pixels in Processed Spectrum: 2048
>>>>>Begin Processed Spectral Data<<<<<
188.76	-0.000
189.23	1.168
189.70	-0.000
190.17	-0.000
190.64	-0.000
191.12	-0.000
191.59	-0.000
192.06	-0.000
192.53	-0.000
193.01	-0.000
193.48	-0.000
193.95	-0.000
194.42	-0.000
194.90	-0.000
195.37	-0.000
195.84	-0.000
196.31	-0.000
196.78	-0.000
197.26	-0.000
197.73	-0.000
198.20	-0.000
198.67	-0.000
199.14	-0.000
199.62	-0.000
200.09	-0.000
200.56	-0.000
201.03	-0.000
201.50	1.259
201.97	-0.000
202.45	-0.000
202.92	0.976
203.39	-0.000
203.86	-0.000
204.33	-0.000
204.80	1.282
205.28	-0.000
205.75	-0.000
206.22	-0.000
206.69	1.768
207.16	-0.000
207.63	-0.000
208.11	0.765
208.58	2.004
209.05	-0.000
209.52	-0.000
209.99	1.392
210.46	1.810
210.93	-0.000
211.41	1.289
211.88	-0.000
212.35	-0.000
212.82	-0.000
213.29	1.272
213.76	2.059
214.23	-0.000
214.70	-0.000
215.18	-0.000
215.65	-0.000
216.12	-0.000
216.59	-0.000
217.06	-0.000
217.53	-0.000
218.00	-0.000
218.47	-0.000
218.94	-0.000
219.41	-0.000
219.89	-0.000
220.36	1.865
220.83	-0.000
221.30	-0.000
221.77	1.103
222.24	1.549
222.71	-0.000
223.18	-0.000
223.65	-0.000
224.12	-0.000
224.59	-0.000
225.06	-0.000
225.54	1.434
226.01	1.648
226.48	-0.000
226.95	2.113
227.42	-0.000
227.89	-0.000
228.36	1.640
228.83	-0.000
229.30	-0.000
229.77	-0.000
230.24	1.648
230.71	-0.000
231.18	3.186
231.65	1.773
232.12	1.935
232.59	2.864
233.06	-0.000
233.53	2.390
234.00	2.652
234.47	-0.000
234.94	-0.000
235.41	2.422
235.88	-0.000
236.35	-0.000
236.82	2.893
237.29	2.371
237.76	-0.000
238.23	-0.000
238.70	2.594
239.17	2.414
239.64	-0.000
240.11	-0.000
240.58	-0.000
241.05	-0.000
241.52	-0.000
241.99	-0.000
242.46	2.630
242.93	3.787
243.40	2.875
243.87	2.618
244.34	2.761
244.81	-0.000
245.28	-0.000
245.75	4.654
246.22	-0.000
246.69	-0.000
247.16	3.085
247.63	3.646
248.10	2.779
248.57	3.495
249.04	3.383
249.51	-0.000
249.98	-0.000
250.45	3.483
250.92	-0.000
251.39	-0.000
251.85	-0.000
252.32	-0.000
252.79	3.429
253.26	-0.000
253.73	-0.000
254.20	2.831
254.67	3.038
255.14	3.015
255.61	2.756
256.08	2.972
256.55	3.380
257.02	2.770
257.49	2.626
257.95	2.538
258.42	2.591
258.89	2.653
259.36	2.470
259.83	2.573
260.30	2.533
260.77	2.525
261.24	2.356
261.71	2.560
262.17	2.485
262.64	2.319
263.11	2.462
263.58	2.527
264.05	2.325
264.52	2.255
264.99	2.253
265.46	2.249
265.92	2.211
266.39	2.177
266.86	2.247
267.33	2.203
267.80	2.114
268.27	2.138
268.74	2.122
269.20	2.098
269.67	2.080
270.14	2.013
270.61	2.048
271.08	1.985
271.55	1.974
272.01	1.982
272.48	1.987
272.95	1.938
273.42	1.976
273.89	1.980
274.36	1.923
274.82	1.895
275.29	1.906
275.76	1.889
276.23	1.849
276.70	1.867
277.16	1.847
277.63	1.801
278.10	1.794
278.57	1.806
279.04	1.795
279.50	1.771
279.97	1.772
280.44	1.755
280.91	1.733
281.38	1.711
281.84	1.723
282.31	1.734
282.78	1.717
283.25	1.693
283.72	1.679
284.18	1.670
284.65	1.654
285.12	1.646
285.59	1.642
286.05	1.644
286.52	1.625
286.99	1.616
287.46	1.629
287.92	1.597
288.39	1.582
288.86	1.589
289.33	1.575
289.79	1.569
290.26	1.568
290.73	1.567
291.20	1.529
291.66	1.535
292.13	1.522
292.60	1.519
293.07	1.512
293.53	1.478
294.00	1.498
294.47	1.492
294.93	1.471
295.40	1.459
295.87	1.465
296.34	1.445
296.80	1.433
297.27	1.426
297.74	1.424
298.20	1.422
298.67	1.406
299.14	1.407
299.60	1.401
300.07	1.380
300.54	1.396
301.01	1.364
301.47	1.345
301.94	1.352
302.41	1.350
302.87	1.342
303.34	1.330
303.81	1.314
304.27	1.321
304.74	1.296
305.21	1.293
305.67	1.298
306.14	1.284
306.61	1.278
307.07	1.264
307.54	1.272
308.01	1.264
308.47	1.245
308.94	1.251
309.40	1.243
309.87	1.224
310.34	1.223
310.80	1.235
311.27	1.215
311.74	1.214
312.20	1.213
312.67	1.203
313.13	1.192
313.60	1.191
314.07	1.181
314.53	1.172
315.00	1.161
315.47	1.173
315.93	1.173
316.40	1.156
316.86	1.147
317.33	1.146
317.80	1.144
318.26	1.132
318.73	1.137
319.19	1.126
319.66	1.118
320.13	1.119
320.59	1.113
321.06	1.108
321.52	1.104
321.99	1.092
322.45	1.092
322.92	1.081
323.39	1.078
323.85	1.079
324.32	1.075
324.78	1.070
325.25	1.065
325.71	1.059
326.18	1.063
326.64	1.062
327.11	1.045
327.58	1.047
328.04	1.044
328.51	1.041
328.97	1.035
329.44	1.030
329.90	1.027
330.37	1.024
330.83	1.014
331.30	1.025
331.76	1.006
332.23	1.001
332.69	1.001
333.16	0.995
333.62	0.986
334.09	0.987
334.56	0.981
335.02	0.978
335.49	0.970
335.95	0.967
336.42	0.968
336.88	0.964
337.35	0.960
337.81	0.957
338.28	0.952
338.74	0.945
339.20	0.946
339.67	0.944
340.13	0.937
340.60	0.931
341.06	0.920
341.53	0.916
341.99	0.915
342.46	0.912
342.92	0.906
343.39	0.891
343.85	0.899
344.32	0.895
344.78	0.889
345.25	0.890
345.71	0.883
346.17	0.878
346.64	0.873
347.10	0.861
347.57	0.860
348.03	0.850
348.50	0.841
348.96	0.837
349.43	0.837
349.89	0.826
350.35	0.824
350.82	0.815
351.28	0.815
351.75	0.809
352.21	0.804
352.67	0.792
353.14	0.797
353.60	0.785
354.07	0.768
354.53	0.762
355.00	0.756
355.46	0.749
355.92	0.747
356.39	0.734
356.85	0.736
357.31	0.724
357.78	0.721
358.24	0.707
358.71	0.703
359.17	0.699
359.63	0.695
360.10	0.686
360.56	0.687
361.03	0.678
361.49	0.675
361.95	0.667
362.42	0.661
362.88	0.661
363.34	0.658
363.81	0.651
364.27	0.652
364.73	0.643
365.20	0.643
365.66	0.639
366.12	0.641
366.59	0.631
367.05	0.627
367.51	0.629
367.98	0.621
368.44	0.621
368.90	0.618
369.37	0.618
369.83	0.613
370.29	0.612
370.76	0.609
371.22	0.607
371.68	0.605
372.15	0.598
372.61	0.599
373.07	0.595
373.54	0.596
374.00	0.593
374.46	0.590
374.92	0.591
375.39	0.587
375.85	0.582
376.31	0.583
376.78	0.583
377.24	0.581
377.70	0.578
378.16	0.571
378.63	0.574
379.09	0.572
379.55	0.572
380.01	0.572
380.48	0.569
380.94	0.569
381.40	0.563
381.87	0.561
382.33	0.558
382.79	0.559
383.25	0.560
383.72	0.561
384.18	0.553
384.64	0.550
385.10	0.551
385.56	0.553
386.03	0.548
386.49	0.549
386.95	0.542
387.41	0.543
387.88	0.539
388.34	0.538
388.80	0.536
389.26	0.538
389.72	0.538
390.19	0.535
390.65	0.530
391.11	0.534
391.57	0.527
392.04	0.527
392.50	0.524
392.96	0.526
393.42	0.521
393.88	0.525
394.34	0.520
394.81	0.518
395.27	0.518
395.73	0.515
396.19	0.513
396.65	0.511
397.12	0.510
397.58	0.511
398.04	0.507
398.50	0.506
398.96	0.505
399.42	0.505
399.89	0.504
400.35	0.502
400.81	0.498
401.27	0.502
401.73	0.500
402.19	0.493
402.65	0.494
403.12	0.491
403.58	0.490
404.04	0.489
404.50	0.488
404.96	0.485
405.42	0.486
405.88	0.483
406.34	0.486
406.81	0.482
407.27	0.480
407.73	0.476
408.19	0.476
408.65	0.476
409.11	0.470
409.57	0.477
410.03	0.472
410.49	0.470
410.96	0.468
411.42	0.467
411.88	0.465
412.34	0.464
412.80	0.465
413.26	0.461
413.72	0.462
414.18	0.460
414.64	0.457
415.10	0.461
415.56	0.459
416.02	0.458
416.48	0.457
416.95	0.453
417.41	0.454
417.87	0.451
418.33	0.456
418.79	0.447
419.25	0.449
419.71	0.449
420.17	0.446
420.63	0.442
421.09	0.443
421.55	0.436
422.01	0.442
422.47	0.444
422.93	0.441
423.39	0.438
423.85	0.441
424.31	0.438
424.77	0.435
425.23	0.435
425.69	0.437
426.15	0.434
426.61	0.433
427.07	0.428
427.53	0.430
427.99	0.425
428.45	0.430
428.91	0.426
429.37	0.424
429.83	0.425
430.29	0.425
430.75	0.422
431.21	0.422
431.67	0.423
432.13	0.419
432.59	0.417
433.05	0.418
433.51	0.417
433.97	0.414
434.43	0.418
434.89	0.418
435.35	0.414
435.81	0.410
436.27	0.410
436.73	0.410
437.19	0.409
437.65	0.411
438.11	0.406
438.57	0.406
439.03	0.406
439.48	0.401
439.94	0.402
440.40	0.404
440.86	0.405
441.32	0.400
441.78	0.403
442.24	0.399
442.70	0.399
443.16	0.399
443.62	0.395
444.08	0.393
444.54	0.395
444.99	0.394
445.45	0.392
445.91	0.389
446.37	0.389
446.83	0.387
447.29	0.388
447.75	0.388
448.21	0.389
448.67	0.385
449.12	0.383
449.58	0.388
450.04	0.380
450.50	0.381
450.96	0.382
451.42	0.381
451.88	0.380
452.34	0.381
452.79	0.381
453.25	0.381
453.71	0.375
454.17	0.377
454.63	0.374
455.09	0.375
455.55	0.374
456.00	0.370
456.46	0.372
456.92	0.366
457.38	0.372
457.84	0.368
458.30	0.365
458.75	0.366
459.21	0.361
459.67	0.368
460.13	0.365
460.59	0.363
461.04	0.359
461.50	0.364
461.96	0.361
462.42	0.361
462.88	0.359
463.33	0.357
463.79	0.357
464.25	0.359
464.71	0.357
465.17	0.357
465.62	0.354
466.08	0.358
466.54	0.356
467.00	0.355
467.46	0.354
467.91	0.353
468.37	0.353
468.83	0.353
469.29	0.349
469.74	0.348
470.20	0.348
470.66	0.346
471.12	0.345
471.57	0.348
472.03	0.343
472.49	0.347
472.95	0.345
473.40	0.344
473.86	0.342
474.32	0.340
474.78	0.342
475.23	0.341
475.69	0.342
476.15	0.337
476.60	0.343
477.06	0.338
477.52	0.335
477.98	0.337
478.43	0.336
478.89	0.336
479.35	0.334
479.80	0.335
480.26	0.335
480.72	0.333
481.18	0.331
481.63	0.333
482.09	0.331
482.55	0.330
483.00	0.329
483.46	0.326
483.92	0.328
484.37	0.328
484.83	0.323
485.29	0.326
485.74	0.326
486.20	0.325
486.66	0.324
487.11	0.326
487.57	0.323
488.03	0.322
488.48	0.320
488.94	0.319
489.40	0.320
489.85	0.321
490.31	0.322
490.77	0.319
491.22	0.318
491.68	0.317
492.13	0.315
492.59	0.317
493.05	0.316
493.50	0.317
493.96	0.314
494.42	0.311
494.87	0.312
495.33	0.310
495.78	0.314
496.24	0.313
496.70	0.312
497.15	0.309
497.61	0.312
498.06	0.309
498.52	0.308
498.98	0.306
499.43	0.308
499.89	0.307
500.34	0.305
500.80	0.306
501.25	0.307
501.71	0.305
502.17	0.303
502.62	0.306
503.08	0.303
503.53	0.300
503.99	0.302
504.44	0.302
504.90	0.304
505.36	0.299
505.81	0.301
506.27	0.303
506.72	0.300
507.18	0.298
507.63	0.295
508.09	0.296
508.54	0.295
509.00	0.296
509.45	0.296
509.91	0.296
510.36	0.295
510.82	0.294
511.27	0.293
511.73	0.291
512.19	0.294
512.64	0.290
513.10	0.291
513.55	0.293
514.01	0.290
514.46	0.289
514.92	0.288
515.37	0.290
515.83	0.290
516.28	0.287
516.73	0.286
517.19	0.285
517.64	0.286
518.10	0.285
518.55	0.284
519.01	0.285
519.46	0.283
519.92	0.283
520.37	0.280
520.83	0.281
521.28	0.281
521.74	0.282
522.19	0.282
522.65	0.281
523.10	0.280
523.55	0.278
524.01	0.281
524.46	0.279
524.92	0.278
525.37	0.278
525.83	0.277
526.28	0.278
526.73	0.279
527.19	0.276
527.64	0.277
528.10	0.276
528.55	0.275
529.01	0.277
529.46	0.276
529.91	0.274
530.37	0.272
530.82	0.275
531.28	0.272
531.73	0.272
532.18	0.270
532.64	0.272
533.09	0.272
533.54	0.270
534.00	0.270
534.45	0.272
534.91	0.270
535.36	0.269
535.81	0.269
536.27	0.268
536.72	0.271
537.17	0.267
537.63	0.268
538.08	0.265
538.54	0.266
538.99	0.265
539.44	0.266
539.90	0.265
540.35	0.267
540.80	0.264
541.26	0.263
541.71	0.263
542.16	0.264
542.62	0.262
543.07	0.263
543.52	0.262
543.98	0.266
544.43	0.266
544.88	0.261
545.34	0.262
545.79	0.261
546.24	0.262
546.69	0.263
547.15	0.259
547.60	0.260
548.05	0.262
548.51	0.260
548.96	0.260
549.41	0.261
549.86	0.259
550.32	0.258
550.77	0.260
551.22	0.258
551.68	0.256
552.13	0.256
552.58	0.254
553.03	0.258
553.49	0.256
553.94	0.258
554.39	0.256
554.84	0.258
555.30	0.257
555.75	0.257
556.20	0.255
556.65	0.254
557.11	0.256
557.56	0.253
558.01	0.255
558.46	0.257
558.92	0.253
559.37	0.254
559.82	0.254
560.27	0.252
560.72	0.252
561.18	0.252
561.63	0.252
562.08	0.249
562.53	0.251
562.99	0.252
563.44	0.252
563.89	0.251
564.34	0.251
564.79	0.252
565.25	0.251
565.70	0.251
566.15	0.250
566.60	0.250
567.05	0.251
567.50	0.249
567.96	0.251
568.41	0.249
568.86	0.250
569.31	0.247
569.76	0.249
570.21	0.247
570.67	0.249
571.12	0.250
571.57	0.248
572.02	0.246
572.47	0.247
572.92	0.248
573.37	0.247
573.83	0.244
574.28	0.248
574.73	0.246
575.18	0.245
575.63	0.248
576.08	0.246
576.53	0.245
576.98	0.246
577.44	0.244
577.89	0.245
578.34	0.245
578.79	0.245
579.24	0.244
579.69	0.245
580.14	0.243
580.59	0.244
581.04	0.244
581.49	0.243
581.95	0.243
582.40	0.244
582.85	0.245
583.30	0.243
583.75	0.242
584.20	0.244
584.65	0.244
585.10	0.243
585.55	0.243
586.00	0.243
586.45	0.243
586.90	0.245
587.35	0.243
587.80	0.241
588.25	0.243
588.71	0.244
589.16	0.243
589.61	0.244
590.06	0.243
590.51	0.245
590.96	0.242
591.41	0.245
591.86	0.244
592.31	0.241
592.76	0.245
593.21	0.245
593.66	0.243
594.11	0.244
594.56	0.244
595.01	0.247
595.46	0.243
595.91	0.244
596.36	0.246
596.81	0.244
597.26	0.244
597.71	0.246
598.16	0.244
598.61	0.244
599.06	0.244
599.51	0.247
599.96	0.248
600.41	0.247
600.86	0.246
601.31	0.246
601.76	0.247
602.21	0.248
602.65	0.247
603.10	0.244
603.55	0.246
604.00	0.247
604.45	0.246
604.90	0.247
605.35	0.244
605.80	0.246
606.25	0.248
606.70	0.246
607.15	0.246
607.60	0.245
608.05	0.246
608.50	0.246
608.95	0.244
609.39	0.248
609.84	0.246
610.29	0.246
610.74	0.246
611.19	0.245
611.64	0.246
612.09	0.245
612.54	0.246
612.99	0.243
613.44	0.244
613.88	0.246
614.33	0.246
614.78	0.243
615.23	0.245
615.68	0.246
616.13	0.245
616.58	0.244
617.03	0.242
617.47	0.244
617.92	0.246
618.37	0.244
618.82	0.244
619.27	0.244
619.72	0.242
620.17	0.242
620.61	0.242
621.06	0.243
621.51	0.242
621.96	0.242
622.41	0.244
622.86	0.243
623.30	0.241
623.75	0.244
624.20	0.244
624.65	0.242
625.10	0.242
625.54	0.244
625.99	0.244
626.44	0.243
626.89	0.243
627.34	0.243
627.78	0.243
628.23	0.242
628.68	0.242
629.13	0.242
629.58	0.244
630.02	0.244
630.47	0.243
630.92	0.244
631.37	0.243
631.81	0.243
632.26	0.242
632.71	0.244
633.16	0.243
633.61	0.244
634.05	0.240
634.50	0.242
634.95	0.244
635.40	0.245
635.84	0.245
636.29	0.242
636.74	0.244
637.18	0.246
637.63	0.244
638.08	0.245
638.53	0.245
638.97	0.244
639.42	0.245
639.87	0.246
640.32	0.247
640.76	0.245
641.21	0.247
641.66	0.246
642.10	0.247
642.55	0.245
643.00	0.247
643.44	0.247
643.89	0.248
644.34	0.246
644.79	0.247
645.23	0.250
645.68	0.248
646.13	0.250
646.57	0.249
647.02	0.249
647.47	0.252
647.91	0.252
648.36	0.249
648.81	0.250
649.25	0.251
649.70	0.249
650.15	0.250
650.59	0.250
651.04	0.251
651.48	0.255
651.93	0.252
652.38	0.249
652.82	0.252
653.27	0.251
653.72	0.250
654.16	0.251
654.61	0.252
655.06	0.250
655.50	0.248
655.95	0.248
656.39	0.244
656.84	0.246
657.29	0.254
657.73	0.251
658.18	0.250
658.62	0.248
659.07	0.250
659.52	0.251
659.96	0.249
660.41	0.251
660.85	0.246
661.30	0.246
661.74	0.247
662.19	0.246
662.64	0.247
663.08	0.244
663.53	0.245
663.97	0.243
664.42	0.245
664.86	0.246
665.31	0.242
665.75	0.240
666.20	0.243
666.65	0.242
667.09	0.239
667.54	0.242
667.98	0.240
668.43	0.236
668.87	0.237
669.32	0.237
669.76	0.235
670.21	0.233
670.65	0.232
671.10	0.232
671.54	0.230
671.99	0.229
672.43	0.229
672.88	0.228
673.32	0.226
673.77	0.223
674.21	0.225
674.66	0.221
675.10	0.220
675.55	0.217
675.99	0.221
676.44	0.215
676.88	0.217
677.33	0.213
677.77	0.213
678.22	0.210
678.66	0.208
679.11	0.205
679.55	0.206
679.99	0.203
680.44	0.204
680.88	0.202
681.33	0.199
681.77	0.198
682.22	0.198
682.66	0.196
683.11	0.194
683.55	0.192
683.99	0.191
684.44	0.189
684.88	0.188
685.33	0.186
685.77	0.187
686.21	0.182
686.66	0.184
687.10	0.183
687.55	0.180
687.99	0.184
688.44	0.182
688.88	0.177
689.32	0.180
689.77	0.175
690.21	0.175
690.65	0.174
691.10	0.172
691.54	0.171
691.99	0.172
692.43	0.167
692.87	0.168
693.32	0.170
693.76	0.169
694.20	0.168
694.65	0.166
695.09	0.168
695.53	0.166
695.98	0.164
696.42	0.166
696.86	0.164
697.31	0.162
697.75	0.163
698.19	0.161
698.64	0.159
699.08	0.161
699.52	0.160
699.97	0.162
700.41	0.159
700.85	0.162
701.30	0.157
701.74	0.160
702.18	0.159
702.63	0.156
703.07	0.158
703.51	0.158
703.96	0.157
704.40	0.157
704.84	0.159
705.28	0.156
705.73	0.156
706.17	0.155
706.61	0.155
707.06	0.155
707.50	0.156
707.94	0.155
708.38	0.152
708.83	0.156
709.27	0.152
709.71	0.152
710.15	0.153
710.60	0.153
711.04	0.153
711.48	0.154
711.92	0.152
712.37	0.150
712.81	0.154
713.25	0.149
713.69	0.152
714.13	0.154
714.58	0.150
715.02	0.152
715.46	0.150
715.90	0.149
716.35	0.148
716.79	0.150
717.23	0.151
717.67	0.151
718.11	0.153
718.56	0.149
719.00	0.153
719.44	0.151
719.88	0.148
720.32	0.149
720.76	0.150
721.21	0.148
721.65	0.150
722.09	0.148
722.53	0.148
722.97	0.151
723.41	0.148
723.86	0.151
724.30	0.151
724.74	0.151
725.18	0.150
725.62	0.149
726.06	0.149
726.50	0.149
726.95	0.147
727.39	0.149
727.83	0.145
728.27	0.151
728.71	0.148
729.15	0.149
729.59	0.148
730.03	0.148
730.48	0.148
730.92	0.147
731.36	0.149
731.80	0.149
732.24	0.149
732.68	0.146
733.12	0.147
733.56	0.148
734.00	0.148
734.44	0.149
734.89	0.147
735.33	0.148
735.77	0.151
736.21	0.148
736.65	0.147
737.09	0.148
737.53	0.150
737.97	0.150
738.41	0.148
738.85	0.151
739.29	0.149
739.73	0.147
740.17	0.149
740.61	0.147
741.05	0.148
741.49	0.148
741.93	0.148
742.37	0.144
742.81	0.145
743.26	0.147
743.70	0.146
744.14	0.148
744.58	0.147
745.02	0.146
745.46	0.148
745.90	0.146
746.34	0.147
746.78	0.146
747.22	0.146
747.66	0.147
748.10	0.146
748.54	0.145
748.98	0.145
749.42	0.145
749.86	0.144
750.29	0.146
750.73	0.143
751.17	0.144
751.61	0.141
752.05	0.146
752.49	0.143
752.93	0.142
753.37	0.144
753.81	0.141
754.25	0.142
754.69	0.139
755.13	0.140
755.57	0.143
756.01	0.145
756.45	0.143
756.89	0.144
757.33	0.141
757.77	0.143
758.21	0.142
758.64	0.140
759.08	0.140
759.52	0.143
759.96	0.142
760.40	0.144
760.84	0.138
761.28	0.139
761.72	0.140
762.16	0.140
762.60	0.141
763.03	0.138
763.47	0.137
763.91	0.140
764.35	0.136
764.79	0.138
765.23	0.136
765.67	0.137
766.11	0.136
766.54	0.137
766.98	0.139
767.42	0.140
767.86	0.137
768.30	0.140
768.74	0.138
769.17	0.140
769.61	0.138
770.05	0.138
770.49	0.139
770.93	0.138
771.37	0.138
771.80	0.134
772.24	0.135
772.68	0.136
773.12	0.136
773.56	0.136
774.00	0.135
774.43	0.134
774.87	0.136
775.31	0.135
775.75	0.135
776.19	0.135
776.62	0.135
777.06	0.137
777.50	0.135
777.94	0.138
778.37	0.133
778.81	0.134
779.25	0.137
779.69	0.136
780.13	0.134
780.56	0.133
781.00	0.133
781.44	0.136
781.88	0.133
782.31	0.133
782.75	0.136
783.19	0.136
783.63	0.134
784.06	0.133
784.50	0.134
784.94	0.131
785.37	0.133
785.81	0.136
786.25	0.134
786.69	0.131
787.12	0.131
787.56	0.133
788.00	0.133
788.43	0.133
788.87	0.134
789.31	0.132
789.75	0.134
790.18	0.129
790.62	0.133
791.06	0.130
791.49	0.132
791.93	0.132
792.37	0.131
792.80	0.130
793.24	0.131
793.68	0.131
794.11	0.131
794.55	0.130
794.99	0.133
795.42	0.134
795.86	0.138
796.30	0.131
796.73	0.129
797.17	0.131
797.61	0.128
798.04	0.130
798.48	0.131
798.91	0.127
799.35	0.129
799.79	0.133
800.22	0.129
800.66	0.129
801.10	0.129
801.53	0.134
801.97	0.136
802.40	0.129
802.84	0.131
803.28	0.131
803.71	0.129
804.15	0.128
804.58	0.127
805.02	0.132
805.46	0.126
805.89	0.129
806.33	0.129
806.76	0.131
807.20	0.127
807.63	0.127
808.07	0.130
808.51	0.128
808.94	0.128
809.38	0.127
809.81	0.127
810.25	0.130
810.68	0.130
811.12	0.130
811.55	0.128
811.99	0.127
812.42	0.128
812.86	0.126
813.29	0.126
813.73	0.130
814.17	0.125
814.60	0.133
815.04	0.126
815.47	0.127
815.91	0.125
816.34	0.126
816.78	0.128
817.21	0.129
817.65	0.128
818.08	0.124
818.52	0.130
818.95	0.129
819.39	0.127
819.82	0.125
820.25	0.126
820.69	0.128
821.12	0.130
821.56	0.127
821.99	0.125
822.43	0.129
822.86	0.128
823.30	0.131
823.73	0.126
824.17	0.125
824.60	0.122
825.04	0.134
825.47	0.127
825.90	0.130
826.34	0.128
826.77	0.126
827.21	0.128
827.64	0.129
828.08	0.127
828.51	0.126
828.94	0.127
829.38	0.127
829.81	0.132
830.25	0.128
830.68	0.131
831.11	0.130
831.55	0.133
831.98	0.131
832.42	0.132
832.85	0.131
833.28	0.136
833.72	0.134
834.15	0.127
834.58	0.129
835.02	0.136
835.45	0.134
835.88	0.131
836.32	0.133
836.75	0.132
837.19	0.132
837.62	0.127
838.05	0.133
838.49	0.129
838.92	0.134
839.35	0.133
839.79	0.132
840.22	0.134
840.65	0.134
841.09	0.134
841.52	0.128
841.95	0.132
842.39	0.135
842.82	0.128
843.25	0.128
843.68	0.132
844.12	0.135
844.55	0.129
844.98	0.130
845.42	0.129
845.85	0.130
846.28	0.131
846.71	0.132
847.15	0.137
847.58	0.133
848.01	0.134
848.45	0.135
848.88	0.135
849.31	0.130
849.74	0.128
850.18	0.131
850.61	0.135
851.04	0.133
851.47	0.133
851.91	0.134
852.34	0.133
852.77	0.131
853.20	0.132
853.64	0.128
854.07	0.136
854.50	0.129
854.93	0.134
855.36	0.131
855.80	0.129
856.23	0.128
856.66	0.132
857.09	0.130
857.52	0.130
857.96	0.124
858.39	0.134
858.82	0.123
859.25	0.137
859.68	0.133
860.12	0.133
860.55	0.127
860.98	0.134
861.41	0.128
861.84	0.130
862.27	0.128
862.71	0.132
863.14	0.132
863.57	0.130
864.00	0.128
864.43	0.138
864.86	0.136
865.30	0.138
865.73	0.138
866.16	0.130
866.59	0.135
867.02	0.134
867.45	0.131
867.88	0.137
868.31	0.134
868.75	0.135
869.18	0.138
869.61	0.135
870.04	0.131
870.47	0.136
870.90	0.134
871.33	0.135
871.76	0.137
872.19	0.141
872.62	0.133
873.06	0.129
873.49	0.137
873.92	0.137
874.35	0.130
874.78	0.128
875.21	0.130
875.64	0.135
876.07	0.138
876.50	0.138
876.93	0.138
877.36	0.134
877.79	0.134
878.22	0.136
878.65	0.136
879.08	0.131
879.51	0.135
879.94	0.134
880.37	0.135
880.80	0.145
881.23	0.132
881.67	0.138
882.10	0.137
882.53	0.128
882.96	0.136
883.39	0.135
883.82	0.134
884.25	0.132
884.68	0.140
885.11	0.134
885.54	0.138
885.97	0.137
886.39	0.134
886.82	0.132
887.25	0.136
887.68	0.139
888.11	0.136
888.54	0.132
888.97	0.138
889.40	0.135
889.83	0.137
890.26	0.132
890.69	0.140
891.12	0.138
891.55	0.133
891.98	0.135
892.41	0.137
892.84	0.138
893.27	0.133
893.70	0.135
894.13	0.139
894.56	0.140
894.98	0.138
895.41	0.140
895.84	0.133
896.27	0.138
896.70	0.138
897.13	0.140
897.56	0.135
897.99	0.135
898.42	0.133
898.85	0.142
899.27	0.136
899.70	0.134
900.13	0.134
900.56	0.135
900.99	0.136
901.42	0.140
901.85	0.139
902.28	0.136
902.70	0.138
903.13	0.138
903.56	0.140
903.99	0.134
904.42	0.138
904.85	0.137
905.27	0.135
905.70	0.138
906.13	0.140
906.56	0.136
906.99	0.140
907.42	0.136
907.84	0.135
908.27	0.141
908.70	0.138
909.13	0.140
909.56	0.137
909.98	0.138
910.41	0.134
910.84	0.136
911.27	0.145
911.70	0.135
912.12	0.134
912.55	0.137
912.98	0.139
913.41	0.142
913.84	0.136
914.26	0.138
914.69	0.136
915.12	0.138
915.55	0.134
915.97	0.137
916.40	0.138
916.83	0.136
917.26	0.137
917.68	0.137
918.11	0.135
918.54	0.135
918.97	0.139
919.39	0.139
919.82	0.138
920.25	0.134
920.67	0.138
921.10	0.138
921.53	0.138
921.96	0.141
922.38	0.142
922.81	0.139
923.24	0.146
923.66	0.140
924.09	0.140
924.52	0.140
924.94	0.144
925.37	0.144
925.80	0.145
926.22	0.139
926.65	0.144
927.08	0.145
927.50	0.144
927.93	0.145
928.36	0.143
928.78	0.144
929.21	0.144
929.64	0.146
930.06	0.154
930.49	0.151
930.92	0.149
931.34	0.151
931.77	0.152
932.20	0.149
932.62	0.155
933.05	0.155
933.47	0.155
933.90	0.153
934.33	0.156
934.75	0.155
935.18	0.157
935.61	0.157
936.03	0.164
936.46	0.163
936.88	0.160
937.31	0.163
937.73	0.165
938.16	0.163
938.59	0.172
939.01	0.174
939.44	0.176
939.86	0.175
940.29	0.177
940.71	0.181
941.14	0.181
941.57	0.179
941.99	0.187
942.42	0.188
942.84	0.187
943.27	0.194
943.69	0.191
944.12	0.195
944.54	0.202
944.97	0.194
945.39	0.194
945.82	0.203
946.24	0.205
946.67	0.203
947.09	0.208
947.52	0.202
947.94	0.205
948.37	0.210
948.79	0.206
949.22	0.218
949.64	0.213
950.07	0.225
950.49	0.217
950.92	0.223
951.34	0.221
951.77	0.234
952.19	0.227
952.62	0.233
953.04	0.241
953.47	0.238
953.89	0.239
954.32	0.247
954.74	0.251
955.17	0.243
955.59	0.254
956.01	0.252
956.44	0.261
956.86	0.260
957.29	0.263
957.71	0.273
958.14	0.266
958.56	0.268
958.98	0.282
959.41	0.273
959.83	0.270
960.26	0.273
960.68	0.287
961.10	0.280
961.53	0.281
961.95	0.287
962.38	0.284
962.80	0.278
963.22	0.284
963.65	0.288
964.07	0.281
964.50	0.285
964.92	0.290
965.34	0.288
965.77	0.283
966.19	0.292
966.61	0.288
967.04	0.292
967.46	0.287
967.88	0.296
968.31	0.289
968.73	0.291
969.15	0.286
969.58	0.287
970.00	0.291
970.42	0.291
970.85	0.294
971.27	0.296
971.69	0.297
972.12	0.297
972.54	0.295
972.96	0.298
973.39	0.297
973.81	0.293
974.23	0.302
974.65	0.291
975.08	0.294
975.50	0.298
975.92	0.302
976.35	0.297
976.77	0.299
977.19	0.299
977.61	0.295
978.04	0.296
978.46	0.295
978.88	0.297
979.30	0.297
979.73	0.288
980.15	0.299
980.57	0.300
980.99	0.300
981.42	0.299
981.84	0.305
982.26	0.293
982.68	0.297
983.11	0.295
983.53	0.299
983.95	0.297
984.37	0.297
984.79	0.291
985.22	0.300
985.64	0.295
986.06	0.294
986.48	0.294
986.90	0.295
987.33	0.291
987.75	0.286
988.17	0.289
988.59	0.291
989.01	0.286
989.43	0.280
989.86	0.287
990.28	0.289
990.70	0.286
991.12	0.287
991.54	0.288
991.96	0.283
992.39	0.289
992.81	0.285
993.23	0.283
993.65	0.279
994.07	0.285
994.49	0.279
994.91	0.279
995.34	0.275
995.76	0.281
996.18	0.279
996.60	0.275
997.02	0.286
997.44	0.275
997.86	0.275
998.28	0.272
998.70	0.273
999.12	0.273
999.55	0.272
999.97	0.268
1000.39	0.272
1000.81	0.272
1001.23	0.270
1001.65	0.274
1002.07	0.276
1002.49	0.269
1002.91	0.263
1003.33	0.264
1003.75	0.264
1004.17	0.267
1004.59	0.263
1005.01	0.263
1005.43	0.269
1005.85	0.263
1006.28	0.257
1006.70	0.253
1007.12	0.254
1007.54	0.255
1007.96	0.252
1008.38	0.262
1008.80	0.257
1009.22	0.254
1009.64	0.254
1010.06	0.246
1010.48	0.252
1010.90	0.258
1011.32	0.250
1011.74	0.241
1012.16	0.254
1012.58	0.249
1013.00	0.249
1013.42	0.230
1013.84	0.235
1014.26	0.243
1014.67	0.244
1015.09	0.238
1015.51	0.243
1015.93	0.239
1016.35	0.243
1016.77	0.240
1017.19	0.233
1017.61	0.230
1018.03	0.236
1018.45	0.242
1018.87	0.243
1019.29	0.239
1019.71	0.231
1020.13	0.235
1020.55	0.226
1020.97	0.222
1021.38	0.222
1021.80	0.231
1022.22	0.229
1022.64	0.214
1023.06	0.224
1023.48	0.231
1023.90	0.220
1024.32	0.219
1024.74	0.220
1025.15	0.220
1025.57	0.208
1025.99	0.222
1026.41	0.237
1026.83	0.220
1027.25	0.220
1027.67	0.221
1028.08	0.218
1028.50	0.219
1028.92	0.213
1029.34	0.219
1029.76	0.226
1030.18	0.212
1030.60	0.224
1031.01	0.226
1031.43	0.214
1031.85	0.209
1032.27	0.217
1032.69	0.199
1033.10	0.224
1033.52	0.213
1033.94	0.205
1034.36	0.203
1034.78	0.191
1035.19	0.213
1035.61	0.204
1036.03	0.211
1036.45	0.208
1036.87	0.210
1037.28	0.196
1037.70	0.187
1038.12	0.196
1038.54	0.198
1038.95	0.188
1039.37	0.194
1039.79	0.201
1040.21	0.198
1040.62	0.208
1041.04	0.196
1041.46	0.189
1041.88	0.174
1042.29	0.196
1042.71	0.191
1043.13	0.205
1043.55	0.189
1043.96	0.209
1044.38	0.206
1044.80	0.191
1045.21	0.178
1045.63	0.198
1046.05	0.191
1046.47	0.188
1046.88	0.192
1047.30	0.201
1047.72	0.199
1048.13	0.179
1048.55	0.180
1048.97	0.197
1049.38	0.187
1049.80	0.184
1050.22	0.218
1050.63	0.186
1051.05	0.217
1051.47	0.206
1051.88	0.212
1052.30	0.203
1052.72	0.185
1053.13	0.184
1053.55	0.210
1053.97	0.189
1054.38	0.215
1054.80	0.212
1055.21	0.205
1055.63	0.173
1056.05	0.191
1056.46	0.217
1056.88	0.165
1057.29	0.177
1057.71	0.206
1058.13	0.252
1058.54	0.187
1058.96	0.197
1059.37	0.217
1059.79	0.212
1060.21	0.228
1060.62	0.200
1061.04	0.217
1061.45	0.225
1061.87	0.191
1062.28	0.204
1062.70	0.248
1063.12	0.183
1063.53	0.223
1063.95	0.258
1064.36	0.294
1064.78	0.308
1065.19	0.253
1065.61	0.297
1066.02	0.286
1066.44	0.248
1066.85	0.275
1067.27	0.338
1067.68	0.258
1068.10	0.261
1068.51	0.268
1068.93	0.330
1069.35	0.349
1069.76	0.388
1070.17	0.367
1070.59	0.278
1071.00	0.389
1071.42	0.305
1071.83	0.403
1072.25	0.327
1072.66	0.293
1073.08	0.500
1073.49	0.523
1073.91	0.308
1074.32	0.481
1074.74	0.371
1075.15	0.513
1075.57	0.420
1075.98	0.708
1076.40	0.476
1076.81	0.567
1077.22	0.510
1077.64	0.434
1078.05	0.459
1078.47	0.430
1078.88	0.769
1079.30	1.186
1079.71	-0.000
1080.12	0.726
1080.54	-0.000
1080.95	0.610
1081.37	-0.000
1081.78	0.561
1082.19	1.015
1082.61	1.129
1083.02	-0.000
1083.44	-0.000
1083.85	-0.000
1084.26	-0.000
1084.68	-0.000
1085.09	-0.000
1085.50	-0.000
1085.92	-0.000
1086.33	-0.000
1086.74	1.362
1087.16	-0.000
1087.57	-0.000
1087.98	-0.000
1088.40	-0.000
1088.81	-0.000
1089.22	-0.000
1089.64	-0.000
1090.05	-0.000
1090.46	-0.000
1090.88	-0.000
1091.29	-0.000
1091.70	-0.000
1092.12	-0.000
1092.53	-0.000
1092.94	-0.000
1093.36	-0.000
1093.77	-0.000
1094.18	-0.000
1094.59	-0.000
1095.01	-0.000
1095.42	-0.000
1095.83	-0.000
1096.25	-0.000
1096.66	-0.000
1097.07	-0.000
1097.48	-0.000
1097.90	-0.000
1098.31	-0.000
1098.72	-0.000
1099.13	-0.000
>>>>>End Processed Spectral Data<<<<<
