SpectraSuite Data File
++++++++++++++++++++++++++++++++++++
Date: Sun Apr 24 16:25:56 CEST 2016
User: spectrasuite
Dark Spectrum Present: Yes
Reference Spectrum Present: Yes
Number of Sampled Component Spectra: 1
Spectrometers: HR+C0708
Integration Time (usec): 1000 (HR+C0708)
Spectra Averaged: 10 (HR+C0708)
Boxcar Smoothing: 0 (HR+C0708)
Correct for Electrical Dark: No (HR+C0708)
Strobe/Lamp Enabled: No (HR+C0708)
Correct for Detector Non-linearity: No (HR+C0708)
Correct for Stray Light: No (HR+C0708)
Number of Pixels in Processed Spectrum: 2048
>>>>>Begin Processed Spectral Data<<<<<
188.76	-0.000
189.23	-0.000
189.70	-0.000
190.17	-0.000
190.64	-0.000
191.12	-0.000
191.59	-0.000
192.06	-0.000
192.53	-0.000
193.01	-0.000
193.48	-0.000
193.95	-0.000
194.42	-0.000
194.90	-0.000
195.37	-0.000
195.84	-0.000
196.31	-0.000
196.78	-0.000
197.26	-0.000
197.73	-0.000
198.20	-0.000
198.67	-0.000
199.14	-0.000
199.62	-0.000
200.09	-0.000
200.56	-0.000
201.03	-0.000
201.50	-0.000
201.97	1.017
202.45	1.853
202.92	1.098
203.39	-0.000
203.86	-0.000
204.33	-0.000
204.80	-0.000
205.28	-0.000
205.75	-0.000
206.22	-0.000
206.69	-0.000
207.16	-0.000
207.63	-0.000
208.11	0.774
208.58	-0.000
209.05	0.988
209.52	-0.000
209.99	-0.000
210.46	-0.000
210.93	-0.000
211.41	1.129
211.88	-0.000
212.35	-0.000
212.82	-0.000
213.29	2.117
213.76	-0.000
214.23	-0.000
214.70	-0.000
215.18	-0.000
215.65	1.630
216.12	2.312
216.59	-0.000
217.06	-0.000
217.53	1.247
218.00	-0.000
218.47	1.106
218.94	-0.000
219.41	-0.000
219.89	1.846
220.36	1.540
220.83	-0.000
221.30	-0.000
221.77	-0.000
222.24	-0.000
222.71	2.846
223.18	-0.000
223.65	-0.000
224.12	-0.000
224.59	-0.000
225.06	-0.000
225.54	-0.000
226.01	1.426
226.48	-0.000
226.95	2.414
227.42	-0.000
227.89	-0.000
228.36	2.134
228.83	-0.000
229.30	2.216
229.77	-0.000
230.24	1.939
230.71	-0.000
231.18	2.172
231.65	2.186
232.12	2.495
232.59	2.438
233.06	-0.000
233.53	-0.000
234.00	-0.000
234.47	-0.000
234.94	-0.000
235.41	-0.000
235.88	-0.000
236.35	-0.000
236.82	2.663
237.29	2.660
237.76	-0.000
238.23	-0.000
238.70	2.821
239.17	2.659
239.64	-0.000
240.11	-0.000
240.58	3.441
241.05	3.217
241.52	-0.000
241.99	-0.000
242.46	-0.000
242.93	-0.000
243.40	3.378
243.87	2.661
244.34	2.658
244.81	-0.000
245.28	-0.000
245.75	4.052
246.22	-0.000
246.69	2.906
247.16	2.954
247.63	3.006
248.10	-0.000
248.57	-0.000
249.04	4.705
249.51	-0.000
249.98	-0.000
250.45	-0.000
250.92	2.953
251.39	3.093
251.85	-0.000
252.32	-0.000
252.79	-0.000
253.26	4.416
253.73	-0.000
254.20	3.016
254.67	2.741
255.14	3.531
255.61	-0.000
256.08	3.605
256.55	3.954
257.02	3.051
257.49	-0.000
257.95	3.094
258.42	3.393
258.89	-0.000
259.36	2.988
259.83	3.322
260.30	3.213
260.77	4.099
261.24	3.209
261.71	3.400
262.17	4.359
262.64	2.806
263.11	3.273
263.58	3.900
264.05	3.835
264.52	2.910
264.99	2.748
265.46	2.822
265.92	2.945
266.39	2.890
266.86	2.935
267.33	3.152
267.80	2.579
268.27	2.866
268.74	2.716
269.20	2.835
269.67	2.773
270.14	2.551
270.61	2.629
271.08	2.569
271.55	2.551
272.01	2.490
272.48	2.532
272.95	2.614
273.42	2.529
273.89	2.531
274.36	2.450
274.82	2.371
275.29	2.353
275.76	2.416
276.23	2.347
276.70	2.352
277.16	2.288
277.63	2.317
278.10	2.283
278.57	2.258
279.04	2.317
279.50	2.307
279.97	2.310
280.44	2.188
280.91	2.205
281.38	2.177
281.84	2.202
282.31	2.179
282.78	2.237
283.25	2.133
283.72	2.122
284.18	2.154
284.65	2.136
285.12	2.142
285.59	2.070
286.05	2.118
286.52	2.099
286.99	2.062
287.46	2.075
287.92	2.083
288.39	2.034
288.86	2.013
289.33	2.024
289.79	2.024
290.26	2.056
290.73	1.988
291.20	2.046
291.66	2.042
292.13	1.997
292.60	1.969
293.07	1.981
293.53	1.909
294.00	1.940
294.47	1.944
294.93	1.932
295.40	1.948
295.87	1.903
296.34	1.930
296.80	1.882
297.27	1.901
297.74	1.862
298.20	1.884
298.67	1.839
299.14	1.870
299.60	1.854
300.07	1.849
300.54	1.859
301.01	1.804
301.47	1.814
301.94	1.790
302.41	1.782
302.87	1.792
303.34	1.838
303.81	1.789
304.27	1.756
304.74	1.755
305.21	1.753
305.67	1.737
306.14	1.721
306.61	1.744
307.07	1.742
307.54	1.728
308.01	1.706
308.47	1.702
308.94	1.722
309.40	1.703
309.87	1.702
310.34	1.692
310.80	1.688
311.27	1.667
311.74	1.659
312.20	1.653
312.67	1.652
313.13	1.641
313.60	1.644
314.07	1.615
314.53	1.608
315.00	1.609
315.47	1.613
315.93	1.602
316.40	1.609
316.86	1.588
317.33	1.592
317.80	1.561
318.26	1.564
318.73	1.570
319.19	1.577
319.66	1.554
320.13	1.545
320.59	1.546
321.06	1.556
321.52	1.538
321.99	1.521
322.45	1.527
322.92	1.507
323.39	1.508
323.85	1.516
324.32	1.494
324.78	1.504
325.25	1.502
325.71	1.490
326.18	1.463
326.64	1.497
327.11	1.460
327.58	1.470
328.04	1.460
328.51	1.460
328.97	1.445
329.44	1.434
329.90	1.430
330.37	1.426
330.83	1.404
331.30	1.411
331.76	1.415
332.23	1.399
332.69	1.383
333.16	1.369
333.62	1.365
334.09	1.370
334.56	1.347
335.02	1.346
335.49	1.330
335.95	1.317
336.42	1.300
336.88	1.310
337.35	1.299
337.81	1.281
338.28	1.264
338.74	1.263
339.20	1.260
339.67	1.244
340.13	1.236
340.60	1.214
341.06	1.200
341.53	1.184
341.99	1.189
342.46	1.166
342.92	1.158
343.39	1.148
343.85	1.128
344.32	1.123
344.78	1.110
345.25	1.095
345.71	1.082
346.17	1.072
346.64	1.059
347.10	1.036
347.57	1.013
348.03	1.001
348.50	0.985
348.96	0.975
349.43	0.959
349.89	0.939
350.35	0.932
350.82	0.924
351.28	0.910
351.75	0.887
352.21	0.888
352.67	0.871
353.14	0.859
353.60	0.842
354.07	0.827
354.53	0.813
355.00	0.810
355.46	0.794
355.92	0.784
356.39	0.762
356.85	0.758
357.31	0.753
357.78	0.744
358.24	0.725
358.71	0.724
359.17	0.712
359.63	0.707
360.10	0.709
360.56	0.694
361.03	0.690
361.49	0.683
361.95	0.680
362.42	0.673
362.88	0.666
363.34	0.661
363.81	0.657
364.27	0.656
364.73	0.650
365.20	0.651
365.66	0.648
366.12	0.641
366.59	0.636
367.05	0.639
367.51	0.640
367.98	0.624
368.44	0.627
368.90	0.625
369.37	0.621
369.83	0.619
370.29	0.621
370.76	0.613
371.22	0.612
371.68	0.609
372.15	0.604
372.61	0.604
373.07	0.603
373.54	0.602
374.00	0.598
374.46	0.597
374.92	0.597
375.39	0.593
375.85	0.587
376.31	0.590
376.78	0.584
377.24	0.589
377.70	0.585
378.16	0.576
378.63	0.580
379.09	0.578
379.55	0.580
380.01	0.573
380.48	0.574
380.94	0.572
381.40	0.568
381.87	0.566
382.33	0.563
382.79	0.565
383.25	0.561
383.72	0.564
384.18	0.558
384.64	0.552
385.10	0.556
385.56	0.555
386.03	0.552
386.49	0.548
386.95	0.545
387.41	0.545
387.88	0.544
388.34	0.539
388.80	0.542
389.26	0.540
389.72	0.542
390.19	0.536
390.65	0.537
391.11	0.536
391.57	0.529
392.04	0.532
392.50	0.525
392.96	0.525
393.42	0.524
393.88	0.526
394.34	0.523
394.81	0.521
395.27	0.516
395.73	0.521
396.19	0.517
396.65	0.515
397.12	0.513
397.58	0.508
398.04	0.509
398.50	0.512
398.96	0.508
399.42	0.512
399.89	0.507
400.35	0.506
400.81	0.502
401.27	0.503
401.73	0.503
402.19	0.500
402.65	0.499
403.12	0.491
403.58	0.494
404.04	0.494
404.50	0.493
404.96	0.490
405.42	0.492
405.88	0.488
406.34	0.490
406.81	0.482
407.27	0.486
407.73	0.480
408.19	0.479
408.65	0.481
409.11	0.478
409.57	0.482
410.03	0.478
410.49	0.477
410.96	0.473
411.42	0.472
411.88	0.473
412.34	0.470
412.80	0.472
413.26	0.465
413.72	0.468
414.18	0.463
414.64	0.463
415.10	0.467
415.56	0.464
416.02	0.462
416.48	0.458
416.95	0.461
417.41	0.458
417.87	0.454
418.33	0.458
418.79	0.454
419.25	0.454
419.71	0.453
420.17	0.453
420.63	0.449
421.09	0.448
421.55	0.447
422.01	0.446
422.47	0.448
422.93	0.445
423.39	0.443
423.85	0.445
424.31	0.440
424.77	0.441
425.23	0.441
425.69	0.443
426.15	0.437
426.61	0.433
427.07	0.433
427.53	0.434
427.99	0.430
428.45	0.429
428.91	0.434
429.37	0.425
429.83	0.426
430.29	0.426
430.75	0.428
431.21	0.429
431.67	0.424
432.13	0.425
432.59	0.422
433.05	0.423
433.51	0.417
433.97	0.420
434.43	0.422
434.89	0.420
435.35	0.420
435.81	0.415
436.27	0.413
436.73	0.415
437.19	0.412
437.65	0.415
438.11	0.409
438.57	0.408
439.03	0.410
439.48	0.410
439.94	0.405
440.40	0.406
440.86	0.406
441.32	0.401
441.78	0.405
442.24	0.402
442.70	0.402
443.16	0.399
443.62	0.399
444.08	0.399
444.54	0.400
444.99	0.397
445.45	0.398
445.91	0.393
446.37	0.395
446.83	0.393
447.29	0.390
447.75	0.390
448.21	0.391
448.67	0.389
449.12	0.388
449.58	0.386
450.04	0.381
450.50	0.385
450.96	0.385
451.42	0.379
451.88	0.381
452.34	0.384
452.79	0.381
453.25	0.382
453.71	0.379
454.17	0.379
454.63	0.383
455.09	0.381
455.55	0.377
456.00	0.374
456.46	0.373
456.92	0.375
457.38	0.374
457.84	0.369
458.30	0.371
458.75	0.370
459.21	0.365
459.67	0.368
460.13	0.368
460.59	0.369
461.04	0.366
461.50	0.368
461.96	0.364
462.42	0.364
462.88	0.363
463.33	0.360
463.79	0.360
464.25	0.362
464.71	0.362
465.17	0.362
465.62	0.359
466.08	0.359
466.54	0.356
467.00	0.359
467.46	0.358
467.91	0.356
468.37	0.355
468.83	0.354
469.29	0.353
469.74	0.353
470.20	0.353
470.66	0.350
471.12	0.347
471.57	0.348
472.03	0.348
472.49	0.348
472.95	0.348
473.40	0.346
473.86	0.344
474.32	0.342
474.78	0.345
475.23	0.342
475.69	0.344
476.15	0.344
476.60	0.342
477.06	0.340
477.52	0.340
477.98	0.336
478.43	0.335
478.89	0.339
479.35	0.337
479.80	0.339
480.26	0.336
480.72	0.335
481.18	0.336
481.63	0.333
482.09	0.334
482.55	0.334
483.00	0.331
483.46	0.332
483.92	0.329
484.37	0.331
484.83	0.325
485.29	0.327
485.74	0.329
486.20	0.326
486.66	0.328
487.11	0.326
487.57	0.324
488.03	0.324
488.48	0.325
488.94	0.322
489.40	0.322
489.85	0.321
490.31	0.324
490.77	0.321
491.22	0.319
491.68	0.319
492.13	0.320
492.59	0.320
493.05	0.317
493.50	0.318
493.96	0.315
494.42	0.316
494.87	0.315
495.33	0.313
495.78	0.315
496.24	0.316
496.70	0.314
497.15	0.313
497.61	0.312
498.06	0.309
498.52	0.308
498.98	0.310
499.43	0.311
499.89	0.310
500.34	0.310
500.80	0.306
501.25	0.307
501.71	0.306
502.17	0.305
502.62	0.309
503.08	0.305
503.53	0.305
503.99	0.300
504.44	0.302
504.90	0.302
505.36	0.300
505.81	0.302
506.27	0.301
506.72	0.299
507.18	0.298
507.63	0.297
508.09	0.300
508.54	0.298
509.00	0.299
509.45	0.296
509.91	0.296
510.36	0.298
510.82	0.295
511.27	0.293
511.73	0.295
512.19	0.294
512.64	0.292
513.10	0.292
513.55	0.295
514.01	0.290
514.46	0.292
514.92	0.291
515.37	0.289
515.83	0.291
516.28	0.288
516.73	0.288
517.19	0.287
517.64	0.287
518.10	0.286
518.55	0.285
519.01	0.285
519.46	0.282
519.92	0.284
520.37	0.281
520.83	0.283
521.28	0.283
521.74	0.284
522.19	0.285
522.65	0.281
523.10	0.281
523.55	0.280
524.01	0.282
524.46	0.278
524.92	0.278
525.37	0.277
525.83	0.277
526.28	0.279
526.73	0.279
527.19	0.279
527.64	0.279
528.10	0.277
528.55	0.274
529.01	0.277
529.46	0.273
529.91	0.274
530.37	0.274
530.82	0.273
531.28	0.271
531.73	0.269
532.18	0.270
532.64	0.272
533.09	0.270
533.54	0.269
534.00	0.268
534.45	0.271
534.91	0.270
535.36	0.271
535.81	0.267
536.27	0.267
536.72	0.269
537.17	0.266
537.63	0.267
538.08	0.265
538.54	0.266
538.99	0.264
539.44	0.263
539.90	0.263
540.35	0.262
540.80	0.261
541.26	0.264
541.71	0.261
542.16	0.260
542.62	0.260
543.07	0.260
543.52	0.260
543.98	0.260
544.43	0.260
544.88	0.259
545.34	0.262
545.79	0.259
546.24	0.256
546.69	0.260
547.15	0.255
547.60	0.256
548.05	0.258
548.51	0.256
548.96	0.256
549.41	0.255
549.86	0.256
550.32	0.255
550.77	0.254
551.22	0.255
551.68	0.251
552.13	0.251
552.58	0.249
553.03	0.251
553.49	0.252
553.94	0.252
554.39	0.250
554.84	0.252
555.30	0.251
555.75	0.251
556.20	0.248
556.65	0.249
557.11	0.249
557.56	0.246
558.01	0.249
558.46	0.252
558.92	0.248
559.37	0.246
559.82	0.245
560.27	0.248
560.72	0.247
561.18	0.245
561.63	0.243
562.08	0.241
562.53	0.244
562.99	0.244
563.44	0.244
563.89	0.242
564.34	0.242
564.79	0.244
565.25	0.241
565.70	0.240
566.15	0.241
566.60	0.238
567.05	0.240
567.50	0.240
567.96	0.239
568.41	0.241
568.86	0.239
569.31	0.235
569.76	0.236
570.21	0.236
570.67	0.237
571.12	0.236
571.57	0.236
572.02	0.234
572.47	0.233
572.92	0.234
573.37	0.235
573.83	0.233
574.28	0.234
574.73	0.234
575.18	0.234
575.63	0.236
576.08	0.232
576.53	0.232
576.98	0.231
577.44	0.229
577.89	0.231
578.34	0.229
578.79	0.229
579.24	0.228
579.69	0.230
580.14	0.226
580.59	0.225
581.04	0.227
581.49	0.227
581.95	0.226
582.40	0.228
582.85	0.226
583.30	0.226
583.75	0.224
584.20	0.225
584.65	0.223
585.10	0.224
585.55	0.223
586.00	0.224
586.45	0.223
586.90	0.226
587.35	0.224
587.80	0.224
588.25	0.225
588.71	0.224
589.16	0.224
589.61	0.222
590.06	0.222
590.51	0.222
590.96	0.221
591.41	0.222
591.86	0.222
592.31	0.220
592.76	0.221
593.21	0.221
593.66	0.221
594.11	0.222
594.56	0.219
595.01	0.221
595.46	0.220
595.91	0.220
596.36	0.218
596.81	0.219
597.26	0.218
597.71	0.216
598.16	0.215
598.61	0.215
599.06	0.217
599.51	0.219
599.96	0.217
600.41	0.217
600.86	0.216
601.31	0.216
601.76	0.214
602.21	0.216
602.65	0.217
603.10	0.216
603.55	0.215
604.00	0.215
604.45	0.214
604.90	0.214
605.35	0.214
605.80	0.214
606.25	0.216
606.70	0.212
607.15	0.211
607.60	0.212
608.05	0.211
608.50	0.211
608.95	0.209
609.39	0.211
609.84	0.211
610.29	0.211
610.74	0.212
611.19	0.210
611.64	0.210
612.09	0.208
612.54	0.210
612.99	0.209
613.44	0.208
613.88	0.210
614.33	0.210
614.78	0.207
615.23	0.207
615.68	0.206
616.13	0.207
616.58	0.206
617.03	0.206
617.47	0.207
617.92	0.205
618.37	0.205
618.82	0.206
619.27	0.205
619.72	0.204
620.17	0.203
620.61	0.204
621.06	0.204
621.51	0.204
621.96	0.202
622.41	0.204
622.86	0.201
623.30	0.203
623.75	0.204
624.20	0.202
624.65	0.201
625.10	0.201
625.54	0.200
625.99	0.201
626.44	0.202
626.89	0.202
627.34	0.203
627.78	0.201
628.23	0.198
628.68	0.199
629.13	0.201
629.58	0.200
630.02	0.199
630.47	0.198
630.92	0.198
631.37	0.199
631.81	0.199
632.26	0.197
632.71	0.198
633.16	0.197
633.61	0.198
634.05	0.196
634.50	0.197
634.95	0.197
635.40	0.196
635.84	0.198
636.29	0.195
636.74	0.195
637.18	0.198
637.63	0.195
638.08	0.194
638.53	0.193
638.97	0.195
639.42	0.195
639.87	0.196
640.32	0.195
640.76	0.197
641.21	0.196
641.66	0.196
642.10	0.195
642.55	0.193
643.00	0.191
643.44	0.193
643.89	0.194
644.34	0.194
644.79	0.194
645.23	0.193
645.68	0.193
646.13	0.193
646.57	0.193
647.02	0.190
647.47	0.194
647.91	0.192
648.36	0.192
648.81	0.193
649.25	0.189
649.70	0.190
650.15	0.189
650.59	0.192
651.04	0.190
651.48	0.192
651.93	0.194
652.38	0.190
652.82	0.191
653.27	0.188
653.72	0.191
654.16	0.188
654.61	0.189
655.06	0.189
655.50	0.188
655.95	0.188
656.39	0.182
656.84	0.186
657.29	0.191
657.73	0.188
658.18	0.187
658.62	0.187
659.07	0.187
659.52	0.188
659.96	0.187
660.41	0.188
660.85	0.185
661.30	0.186
661.74	0.187
662.19	0.188
662.64	0.186
663.08	0.186
663.53	0.187
663.97	0.185
664.42	0.185
664.86	0.184
665.31	0.185
665.75	0.182
666.20	0.185
666.65	0.183
667.09	0.184
667.54	0.185
667.98	0.183
668.43	0.181
668.87	0.180
669.32	0.182
669.76	0.182
670.21	0.182
670.65	0.178
671.10	0.181
671.54	0.181
671.99	0.179
672.43	0.180
672.88	0.180
673.32	0.180
673.77	0.176
674.21	0.178
674.66	0.179
675.10	0.177
675.55	0.176
675.99	0.178
676.44	0.176
676.88	0.176
677.33	0.176
677.77	0.175
678.22	0.173
678.66	0.173
679.11	0.172
679.55	0.174
679.99	0.173
680.44	0.176
680.88	0.172
681.33	0.169
681.77	0.172
682.22	0.170
682.66	0.170
683.11	0.169
683.55	0.169
683.99	0.168
684.44	0.167
684.88	0.167
685.33	0.167
685.77	0.168
686.21	0.167
686.66	0.168
687.10	0.165
687.55	0.166
687.99	0.167
688.44	0.166
688.88	0.165
689.32	0.166
689.77	0.164
690.21	0.164
690.65	0.163
691.10	0.164
691.54	0.165
691.99	0.163
692.43	0.162
692.87	0.161
693.32	0.163
693.76	0.163
694.20	0.163
694.65	0.161
695.09	0.161
695.53	0.162
695.98	0.160
696.42	0.161
696.86	0.160
697.31	0.160
697.75	0.160
698.19	0.157
698.64	0.158
699.08	0.158
699.52	0.158
699.97	0.161
700.41	0.160
700.85	0.160
701.30	0.157
701.74	0.158
702.18	0.159
702.63	0.158
703.07	0.160
703.51	0.159
703.96	0.156
704.40	0.157
704.84	0.157
705.28	0.157
705.73	0.158
706.17	0.158
706.61	0.158
707.06	0.155
707.50	0.158
707.94	0.151
708.38	0.154
708.83	0.157
709.27	0.157
709.71	0.153
710.15	0.154
710.60	0.155
711.04	0.155
711.48	0.156
711.92	0.155
712.37	0.152
712.81	0.157
713.25	0.156
713.69	0.153
714.13	0.158
714.58	0.153
715.02	0.154
715.46	0.153
715.90	0.152
716.35	0.151
716.79	0.153
717.23	0.156
717.67	0.155
718.11	0.155
718.56	0.152
719.00	0.154
719.44	0.153
719.88	0.151
720.32	0.153
720.76	0.154
721.21	0.152
721.65	0.152
722.09	0.152
722.53	0.152
722.97	0.152
723.41	0.152
723.86	0.152
724.30	0.152
724.74	0.154
725.18	0.153
725.62	0.151
726.06	0.153
726.50	0.151
726.95	0.151
727.39	0.152
727.83	0.150
728.27	0.152
728.71	0.151
729.15	0.153
729.59	0.151
730.03	0.151
730.48	0.153
730.92	0.149
731.36	0.152
731.80	0.153
732.24	0.152
732.68	0.150
733.12	0.149
733.56	0.150
734.00	0.150
734.44	0.150
734.89	0.152
735.33	0.152
735.77	0.156
736.21	0.150
736.65	0.151
737.09	0.151
737.53	0.153
737.97	0.152
738.41	0.152
738.85	0.155
739.29	0.152
739.73	0.148
740.17	0.151
740.61	0.153
741.05	0.153
741.49	0.151
741.93	0.147
742.37	0.147
742.81	0.151
743.26	0.150
743.70	0.150
744.14	0.151
744.58	0.150
745.02	0.151
745.46	0.149
745.90	0.151
746.34	0.150
746.78	0.150
747.22	0.150
747.66	0.151
748.10	0.151
748.54	0.148
748.98	0.149
749.42	0.148
749.86	0.149
750.29	0.146
750.73	0.147
751.17	0.146
751.61	0.148
752.05	0.150
752.49	0.146
752.93	0.146
753.37	0.148
753.81	0.144
754.25	0.147
754.69	0.146
755.13	0.143
755.57	0.146
756.01	0.146
756.45	0.148
756.89	0.148
757.33	0.147
757.77	0.146
758.21	0.145
758.64	0.145
759.08	0.143
759.52	0.146
759.96	0.147
760.40	0.145
760.84	0.144
761.28	0.145
761.72	0.143
762.16	0.144
762.60	0.143
763.03	0.143
763.47	0.144
763.91	0.145
764.35	0.142
764.79	0.141
765.23	0.140
765.67	0.142
766.11	0.140
766.54	0.139
766.98	0.144
767.42	0.141
767.86	0.139
768.30	0.144
768.74	0.145
769.17	0.143
769.61	0.145
770.05	0.142
770.49	0.142
770.93	0.142
771.37	0.141
771.80	0.140
772.24	0.139
772.68	0.138
773.12	0.139
773.56	0.141
774.00	0.139
774.43	0.139
774.87	0.138
775.31	0.140
775.75	0.140
776.19	0.141
776.62	0.137
777.06	0.140
777.50	0.139
777.94	0.139
778.37	0.137
778.81	0.137
779.25	0.140
779.69	0.139
780.13	0.140
780.56	0.139
781.00	0.141
781.44	0.139
781.88	0.138
782.31	0.138
782.75	0.139
783.19	0.139
783.63	0.138
784.06	0.135
784.50	0.141
784.94	0.135
785.37	0.138
785.81	0.140
786.25	0.136
786.69	0.137
787.12	0.136
787.56	0.134
788.00	0.140
788.43	0.140
788.87	0.135
789.31	0.135
789.75	0.140
790.18	0.134
790.62	0.134
791.06	0.136
791.49	0.133
791.93	0.135
792.37	0.139
792.80	0.135
793.24	0.133
793.68	0.136
794.11	0.133
794.55	0.139
794.99	0.138
795.42	0.135
795.86	0.135
796.30	0.133
796.73	0.137
797.17	0.135
797.61	0.132
798.04	0.133
798.48	0.136
798.91	0.134
799.35	0.132
799.79	0.138
800.22	0.134
800.66	0.131
801.10	0.135
801.53	0.132
801.97	0.140
802.40	0.134
802.84	0.135
803.28	0.132
803.71	0.133
804.15	0.134
804.58	0.131
805.02	0.136
805.46	0.128
805.89	0.131
806.33	0.134
806.76	0.133
807.20	0.136
807.63	0.132
808.07	0.135
808.51	0.131
808.94	0.129
809.38	0.133
809.81	0.133
810.25	0.135
810.68	0.134
811.12	0.131
811.55	0.137
811.99	0.133
812.42	0.136
812.86	0.131
813.29	0.132
813.73	0.131
814.17	0.132
814.60	0.130
815.04	0.134
815.47	0.130
815.91	0.129
816.34	0.132
816.78	0.130
817.21	0.134
817.65	0.135
818.08	0.130
818.52	0.133
818.95	0.135
819.39	0.134
819.82	0.134
820.25	0.133
820.69	0.129
821.12	0.133
821.56	0.128
821.99	0.131
822.43	0.129
822.86	0.134
823.30	0.132
823.73	0.134
824.17	0.129
824.60	0.129
825.04	0.136
825.47	0.131
825.90	0.132
826.34	0.129
826.77	0.131
827.21	0.131
827.64	0.131
828.08	0.136
828.51	0.128
828.94	0.130
829.38	0.131
829.81	0.137
830.25	0.131
830.68	0.131
831.11	0.131
831.55	0.134
831.98	0.138
832.42	0.135
832.85	0.138
833.28	0.137
833.72	0.135
834.15	0.134
834.58	0.137
835.02	0.134
835.45	0.133
835.88	0.133
836.32	0.139
836.75	0.134
837.19	0.136
837.62	0.134
838.05	0.135
838.49	0.136
838.92	0.137
839.35	0.135
839.79	0.132
840.22	0.138
840.65	0.135
841.09	0.138
841.52	0.132
841.95	0.136
842.39	0.135
842.82	0.135
843.25	0.134
843.68	0.137
844.12	0.136
844.55	0.133
844.98	0.132
845.42	0.136
845.85	0.133
846.28	0.132
846.71	0.131
847.15	0.135
847.58	0.137
848.01	0.138
848.45	0.137
848.88	0.140
849.31	0.134
849.74	0.135
850.18	0.135
850.61	0.132
851.04	0.136
851.47	0.136
851.91	0.137
852.34	0.134
852.77	0.134
853.20	0.135
853.64	0.137
854.07	0.138
854.50	0.135
854.93	0.137
855.36	0.138
855.80	0.134
856.23	0.131
856.66	0.136
857.09	0.131
857.52	0.135
857.96	0.131
858.39	0.136
858.82	0.126
859.25	0.137
859.68	0.136
860.12	0.133
860.55	0.134
860.98	0.132
861.41	0.135
861.84	0.137
862.27	0.130
862.71	0.139
863.14	0.137
863.57	0.134
864.00	0.130
864.43	0.136
864.86	0.135
865.30	0.135
865.73	0.136
866.16	0.135
866.59	0.138
867.02	0.130
867.45	0.135
867.88	0.135
868.31	0.132
868.75	0.138
869.18	0.137
869.61	0.136
870.04	0.139
870.47	0.138
870.90	0.142
871.33	0.133
871.76	0.139
872.19	0.141
872.62	0.134
873.06	0.134
873.49	0.137
873.92	0.139
874.35	0.138
874.78	0.134
875.21	0.134
875.64	0.134
876.07	0.141
876.50	0.136
876.93	0.138
877.36	0.140
877.79	0.138
878.22	0.133
878.65	0.136
879.08	0.132
879.51	0.143
879.94	0.139
880.37	0.136
880.80	0.145
881.23	0.131
881.67	0.140
882.10	0.137
882.53	0.135
882.96	0.143
883.39	0.137
883.82	0.135
884.25	0.134
884.68	0.139
885.11	0.142
885.54	0.139
885.97	0.138
886.39	0.136
886.82	0.137
887.25	0.140
887.68	0.139
888.11	0.140
888.54	0.137
888.97	0.137
889.40	0.143
889.83	0.135
890.26	0.137
890.69	0.137
891.12	0.138
891.55	0.140
891.98	0.137
892.41	0.137
892.84	0.136
893.27	0.139
893.70	0.137
894.13	0.143
894.56	0.140
894.98	0.146
895.41	0.143
895.84	0.139
896.27	0.139
896.70	0.141
897.13	0.144
897.56	0.138
897.99	0.137
898.42	0.136
898.85	0.147
899.27	0.141
899.70	0.143
900.13	0.138
900.56	0.140
900.99	0.142
901.42	0.140
901.85	0.144
902.28	0.139
902.70	0.141
903.13	0.138
903.56	0.143
903.99	0.136
904.42	0.141
904.85	0.138
905.27	0.138
905.70	0.143
906.13	0.143
906.56	0.139
906.99	0.140
907.42	0.139
907.84	0.136
908.27	0.140
908.70	0.142
909.13	0.144
909.56	0.138
909.98	0.138
910.41	0.138
910.84	0.138
911.27	0.141
911.70	0.140
912.12	0.135
912.55	0.139
912.98	0.142
913.41	0.142
913.84	0.138
914.26	0.140
914.69	0.141
915.12	0.142
915.55	0.137
915.97	0.143
916.40	0.141
916.83	0.138
917.26	0.142
917.68	0.144
918.11	0.142
918.54	0.138
918.97	0.141
919.39	0.138
919.82	0.142
920.25	0.138
920.67	0.141
921.10	0.143
921.53	0.139
921.96	0.144
922.38	0.143
922.81	0.142
923.24	0.144
923.66	0.143
924.09	0.144
924.52	0.146
924.94	0.143
925.37	0.148
925.80	0.149
926.22	0.144
926.65	0.145
927.08	0.145
927.50	0.146
927.93	0.149
928.36	0.144
928.78	0.146
929.21	0.149
929.64	0.149
930.06	0.155
930.49	0.151
930.92	0.156
931.34	0.155
931.77	0.158
932.20	0.156
932.62	0.155
933.05	0.155
933.47	0.157
933.90	0.156
934.33	0.155
934.75	0.162
935.18	0.161
935.61	0.164
936.03	0.161
936.46	0.166
936.88	0.168
937.31	0.168
937.73	0.172
938.16	0.166
938.59	0.171
939.01	0.172
939.44	0.175
939.86	0.173
940.29	0.179
940.71	0.179
941.14	0.183
941.57	0.184
941.99	0.186
942.42	0.188
942.84	0.194
943.27	0.197
943.69	0.200
944.12	0.197
944.54	0.197
944.97	0.199
945.39	0.198
945.82	0.197
946.24	0.202
946.67	0.204
947.09	0.206
947.52	0.212
947.94	0.212
948.37	0.222
948.79	0.212
949.22	0.213
949.64	0.220
950.07	0.220
950.49	0.221
950.92	0.227
951.34	0.228
951.77	0.230
952.19	0.232
952.62	0.244
953.04	0.239
953.47	0.240
953.89	0.246
954.32	0.251
954.74	0.249
955.17	0.253
955.59	0.254
956.01	0.260
956.44	0.263
956.86	0.260
957.29	0.271
957.71	0.268
958.14	0.269
958.56	0.266
958.98	0.278
959.41	0.272
959.83	0.274
960.26	0.276
960.68	0.288
961.10	0.281
961.53	0.282
961.95	0.282
962.38	0.285
962.80	0.283
963.22	0.282
963.65	0.288
964.07	0.285
964.50	0.297
964.92	0.297
965.34	0.288
965.77	0.286
966.19	0.293
966.61	0.297
967.04	0.297
967.46	0.294
967.88	0.300
968.31	0.294
968.73	0.291
969.15	0.294
969.58	0.292
970.00	0.292
970.42	0.295
970.85	0.294
971.27	0.291
971.69	0.293
972.12	0.295
972.54	0.303
972.96	0.299
973.39	0.298
973.81	0.298
974.23	0.299
974.65	0.296
975.08	0.298
975.50	0.303
975.92	0.301
976.35	0.302
976.77	0.299
977.19	0.297
977.61	0.301
978.04	0.297
978.46	0.300
978.88	0.299
979.30	0.304
979.73	0.298
980.15	0.296
980.57	0.301
980.99	0.297
981.42	0.289
981.84	0.306
982.26	0.303
982.68	0.298
983.11	0.301
983.53	0.294
983.95	0.298
984.37	0.293
984.79	0.295
985.22	0.294
985.64	0.294
986.06	0.296
986.48	0.302
986.90	0.294
987.33	0.291
987.75	0.292
988.17	0.293
988.59	0.288
989.01	0.283
989.43	0.282
989.86	0.289
990.28	0.294
990.70	0.285
991.12	0.288
991.54	0.292
991.96	0.289
992.39	0.291
992.81	0.283
993.23	0.281
993.65	0.279
994.07	0.283
994.49	0.274
994.91	0.286
995.34	0.273
995.76	0.277
996.18	0.283
996.60	0.280
997.02	0.276
997.44	0.273
997.86	0.278
998.28	0.271
998.70	0.277
999.12	0.279
999.55	0.278
999.97	0.275
1000.39	0.275
1000.81	0.274
1001.23	0.277
1001.65	0.276
1002.07	0.279
1002.49	0.273
1002.91	0.270
1003.33	0.271
1003.75	0.269
1004.17	0.272
1004.59	0.263
1005.01	0.262
1005.43	0.269
1005.85	0.265
1006.28	0.260
1006.70	0.265
1007.12	0.267
1007.54	0.258
1007.96	0.260
1008.38	0.261
1008.80	0.253
1009.22	0.257
1009.64	0.262
1010.06	0.255
1010.48	0.256
1010.90	0.265
1011.32	0.252
1011.74	0.245
1012.16	0.256
1012.58	0.250
1013.00	0.245
1013.42	0.246
1013.84	0.241
1014.26	0.240
1014.67	0.247
1015.09	0.239
1015.51	0.245
1015.93	0.244
1016.35	0.247
1016.77	0.241
1017.19	0.238
1017.61	0.230
1018.03	0.230
1018.45	0.231
1018.87	0.237
1019.29	0.236
1019.71	0.238
1020.13	0.235
1020.55	0.231
1020.97	0.226
1021.38	0.228
1021.80	0.227
1022.22	0.228
1022.64	0.222
1023.06	0.229
1023.48	0.225
1023.90	0.217
1024.32	0.217
1024.74	0.231
1025.15	0.221
1025.57	0.223
1025.99	0.228
1026.41	0.233
1026.83	0.214
1027.25	0.207
1027.67	0.229
1028.08	0.214
1028.50	0.213
1028.92	0.213
1029.34	0.212
1029.76	0.227
1030.18	0.218
1030.60	0.220
1031.01	0.214
1031.43	0.212
1031.85	0.212
1032.27	0.221
1032.69	0.206
1033.10	0.209
1033.52	0.205
1033.94	0.209
1034.36	0.200
1034.78	0.206
1035.19	0.208
1035.61	0.208
1036.03	0.202
1036.45	0.204
1036.87	0.194
1037.28	0.190
1037.70	0.197
1038.12	0.199
1038.54	0.184
1038.95	0.194
1039.37	0.204
1039.79	0.195
1040.21	0.196
1040.62	0.198
1041.04	0.189
1041.46	0.189
1041.88	0.200
1042.29	0.201
1042.71	0.205
1043.13	0.202
1043.55	0.192
1043.96	0.184
1044.38	0.204
1044.80	0.209
1045.21	0.180
1045.63	0.176
1046.05	0.203
1046.47	0.180
1046.88	0.184
1047.30	0.197
1047.72	0.188
1048.13	0.190
1048.55	0.186
1048.97	0.186
1049.38	0.193
1049.80	0.194
1050.22	0.205
1050.63	0.196
1051.05	0.187
1051.47	0.186
1051.88	0.210
1052.30	0.209
1052.72	0.196
1053.13	0.178
1053.55	0.199
1053.97	0.201
1054.38	0.172
1054.80	0.192
1055.21	0.175
1055.63	0.159
1056.05	0.174
1056.46	0.215
1056.88	0.203
1057.29	0.184
1057.71	0.203
1058.13	0.191
1058.54	0.231
1058.96	0.190
1059.37	0.239
1059.79	0.245
1060.21	0.211
1060.62	0.188
1061.04	0.200
1061.45	0.221
1061.87	0.194
1062.28	0.179
1062.70	0.219
1063.12	0.194
1063.53	0.198
1063.95	0.224
1064.36	0.210
1064.78	0.208
1065.19	0.249
1065.61	0.266
1066.02	0.221
1066.44	0.238
1066.85	0.240
1067.27	0.282
1067.68	0.249
1068.10	0.255
1068.51	0.244
1068.93	0.208
1069.35	0.379
1069.76	0.242
1070.17	0.256
1070.59	0.242
1071.00	0.267
1071.42	0.272
1071.83	0.342
1072.25	0.334
1072.66	0.242
1073.08	0.426
1073.49	0.248
1073.91	0.308
1074.32	0.362
1074.74	0.300
1075.15	0.378
1075.57	0.198
1075.98	0.456
1076.40	0.293
1076.81	0.531
1077.22	0.286
1077.64	0.340
1078.05	0.498
1078.47	0.334
1078.88	0.451
1079.30	0.788
1079.71	0.794
1080.12	0.682
1080.54	-0.000
1080.95	1.304
1081.37	-0.000
1081.78	0.515
1082.19	1.508
1082.61	1.174
1083.02	-0.000
1083.44	0.940
1083.85	-0.000
1084.26	1.189
1084.68	-0.000
1085.09	-0.000
1085.50	-0.000
1085.92	-0.000
1086.33	1.473
1086.74	1.500
1087.16	-0.000
1087.57	-0.000
1087.98	-0.000
1088.40	1.875
1088.81	-0.000
1089.22	-0.000
1089.64	-0.000
1090.05	-0.000
1090.46	-0.000
1090.88	-0.000
1091.29	-0.000
1091.70	-0.000
1092.12	-0.000
1092.53	-0.000
1092.94	-0.000
1093.36	-0.000
1093.77	-0.000
1094.18	-0.000
1094.59	-0.000
1095.01	-0.000
1095.42	-0.000
1095.83	-0.000
1096.25	-0.000
1096.66	-0.000
1097.07	-0.000
1097.48	-0.000
1097.90	-0.000
1098.31	-0.000
1098.72	-0.000
1099.13	-0.000
>>>>>End Processed Spectral Data<<<<<
