SpectraSuite Data File
++++++++++++++++++++++++++++++++++++
Date: Sun Apr 24 17:01:06 CEST 2016
User: spectrasuite
Dark Spectrum Present: Yes
Reference Spectrum Present: Yes
Number of Sampled Component Spectra: 1
Spectrometers: HR+C0708
Integration Time (usec): 1000 (HR+C0708)
Spectra Averaged: 10 (HR+C0708)
Boxcar Smoothing: 0 (HR+C0708)
Correct for Electrical Dark: No (HR+C0708)
Strobe/Lamp Enabled: No (HR+C0708)
Correct for Detector Non-linearity: No (HR+C0708)
Correct for Stray Light: No (HR+C0708)
Number of Pixels in Processed Spectrum: 2048
>>>>>Begin Processed Spectral Data<<<<<
188.76	-0.000
189.23	-0.000
189.70	-0.000
190.17	-0.000
190.64	-0.000
191.12	-0.000
191.59	-0.000
192.06	-0.000
192.53	-0.000
193.01	-0.000
193.48	-0.000
193.95	-0.000
194.42	-0.000
194.90	-0.000
195.37	-0.000
195.84	-0.000
196.31	-0.000
196.78	-0.000
197.26	-0.000
197.73	-0.000
198.20	-0.000
198.67	-0.000
199.14	-0.000
199.62	-0.000
200.09	-0.000
200.56	-0.000
201.03	-0.000
201.50	-0.000
201.97	1.758
202.45	1.744
202.92	-0.000
203.39	1.482
203.86	1.090
204.33	-0.000
204.80	-0.000
205.28	0.979
205.75	-0.000
206.22	-0.000
206.69	1.370
207.16	-0.000
207.63	1.343
208.11	2.058
208.58	-0.000
209.05	1.633
209.52	-0.000
209.99	-0.000
210.46	1.169
210.93	-0.000
211.41	-0.000
211.88	-0.000
212.35	-0.000
212.82	-0.000
213.29	-0.000
213.76	1.554
214.23	1.697
214.70	-0.000
215.18	-0.000
215.65	0.694
216.12	1.391
216.59	-0.000
217.06	1.940
217.53	-0.000
218.00	1.232
218.47	-0.000
218.94	1.466
219.41	-0.000
219.89	-0.000
220.36	-0.000
220.83	1.194
221.30	-0.000
221.77	-0.000
222.24	1.394
222.71	-0.000
223.18	-0.000
223.65	-0.000
224.12	-0.000
224.59	-0.000
225.06	-0.000
225.54	2.036
226.01	1.152
226.48	-0.000
226.95	-0.000
227.42	-0.000
227.89	-0.000
228.36	1.950
228.83	2.397
229.30	-0.000
229.77	-0.000
230.24	2.426
230.71	-0.000
231.18	-0.000
231.65	-0.000
232.12	2.130
232.59	2.239
233.06	-0.000
233.53	-0.000
234.00	2.140
234.47	-0.000
234.94	-0.000
235.41	-0.000
235.88	2.532
236.35	2.946
236.82	-0.000
237.29	2.867
237.76	2.363
238.23	-0.000
238.70	-0.000
239.17	2.349
239.64	-0.000
240.11	4.417
240.58	-0.000
241.05	2.773
241.52	-0.000
241.99	-0.000
242.46	3.248
242.93	2.702
243.40	3.281
243.87	-0.000
244.34	2.354
244.81	4.026
245.28	-0.000
245.75	-0.000
246.22	3.626
246.69	3.598
247.16	-0.000
247.63	3.096
248.10	2.614
248.57	-0.000
249.04	-0.000
249.51	2.797
249.98	-0.000
250.45	-0.000
250.92	-0.000
251.39	-0.000
251.85	3.810
252.32	-0.000
252.79	-0.000
253.26	-0.000
253.73	-0.000
254.20	-0.000
254.67	2.529
255.14	3.114
255.61	-0.000
256.08	3.279
256.55	-0.000
257.02	2.884
257.49	3.340
257.95	3.067
258.42	2.925
258.89	3.774
259.36	2.998
259.83	2.905
260.30	3.859
260.77	3.583
261.24	2.642
261.71	3.076
262.17	2.749
262.64	2.757
263.11	2.734
263.58	2.754
264.05	2.719
264.52	2.572
264.99	2.555
265.46	2.771
265.92	2.704
266.39	2.459
266.86	2.676
267.33	2.636
267.80	2.586
268.27	2.549
268.74	2.467
269.20	2.582
269.67	2.415
270.14	2.361
270.61	2.373
271.08	2.438
271.55	2.310
272.01	2.388
272.48	2.335
272.95	2.310
273.42	2.310
273.89	2.268
274.36	2.297
274.82	2.172
275.29	2.187
275.76	2.221
276.23	2.147
276.70	2.108
277.16	2.134
277.63	2.119
278.10	2.116
278.57	2.082
279.04	2.122
279.50	2.154
279.97	2.048
280.44	1.970
280.91	2.024
281.38	2.004
281.84	1.978
282.31	2.057
282.78	2.094
283.25	1.994
283.72	1.962
284.18	1.957
284.65	1.950
285.12	1.915
285.59	1.871
286.05	1.932
286.52	1.921
286.99	1.897
287.46	1.902
287.92	1.908
288.39	1.852
288.86	1.887
289.33	1.850
289.79	1.855
290.26	1.831
290.73	1.805
291.20	1.852
291.66	1.820
292.13	1.781
292.60	1.795
293.07	1.772
293.53	1.747
294.00	1.773
294.47	1.756
294.93	1.772
295.40	1.755
295.87	1.719
296.34	1.760
296.80	1.698
297.27	1.694
297.74	1.704
298.20	1.716
298.67	1.665
299.14	1.692
299.60	1.702
300.07	1.673
300.54	1.641
301.01	1.621
301.47	1.638
301.94	1.604
302.41	1.607
302.87	1.620
303.34	1.656
303.81	1.603
304.27	1.614
304.74	1.588
305.21	1.594
305.67	1.582
306.14	1.578
306.61	1.587
307.07	1.554
307.54	1.554
308.01	1.560
308.47	1.537
308.94	1.533
309.40	1.550
309.87	1.535
310.34	1.513
310.80	1.528
311.27	1.514
311.74	1.499
312.20	1.503
312.67	1.488
313.13	1.483
313.60	1.505
314.07	1.461
314.53	1.458
315.00	1.453
315.47	1.457
315.93	1.464
316.40	1.430
316.86	1.446
317.33	1.419
317.80	1.420
318.26	1.426
318.73	1.416
319.19	1.395
319.66	1.403
320.13	1.402
320.59	1.395
321.06	1.402
321.52	1.393
321.99	1.387
322.45	1.370
322.92	1.359
323.39	1.363
323.85	1.368
324.32	1.345
324.78	1.356
325.25	1.352
325.71	1.325
326.18	1.323
326.64	1.334
327.11	1.331
327.58	1.308
328.04	1.309
328.51	1.309
328.97	1.308
329.44	1.289
329.90	1.297
330.37	1.283
330.83	1.255
331.30	1.280
331.76	1.291
332.23	1.257
332.69	1.250
333.16	1.229
333.62	1.246
334.09	1.231
334.56	1.212
335.02	1.226
335.49	1.210
335.95	1.187
336.42	1.190
336.88	1.184
337.35	1.172
337.81	1.178
338.28	1.164
338.74	1.162
339.20	1.145
339.67	1.135
340.13	1.135
340.60	1.121
341.06	1.092
341.53	1.095
341.99	1.096
342.46	1.073
342.92	1.068
343.39	1.052
343.85	1.049
344.32	1.035
344.78	1.029
345.25	1.025
345.71	1.012
346.17	0.997
346.64	0.996
347.10	0.981
347.57	0.964
348.03	0.941
348.50	0.931
348.96	0.925
349.43	0.908
349.89	0.902
350.35	0.896
350.82	0.877
351.28	0.874
351.75	0.862
352.21	0.851
352.67	0.829
353.14	0.831
353.60	0.824
354.07	0.802
354.53	0.789
355.00	0.781
355.46	0.774
355.92	0.759
356.39	0.749
356.85	0.753
357.31	0.742
357.78	0.729
358.24	0.727
358.71	0.716
359.17	0.714
359.63	0.709
360.10	0.702
360.56	0.698
361.03	0.691
361.49	0.682
361.95	0.679
362.42	0.673
362.88	0.667
363.34	0.662
363.81	0.665
364.27	0.660
364.73	0.660
365.20	0.651
365.66	0.644
366.12	0.639
366.59	0.640
367.05	0.639
367.51	0.639
367.98	0.630
368.44	0.626
368.90	0.628
369.37	0.623
369.83	0.620
370.29	0.619
370.76	0.619
371.22	0.617
371.68	0.613
372.15	0.609
372.61	0.603
373.07	0.603
373.54	0.605
374.00	0.603
374.46	0.600
374.92	0.596
375.39	0.596
375.85	0.592
376.31	0.592
376.78	0.589
377.24	0.591
377.70	0.584
378.16	0.584
378.63	0.582
379.09	0.582
379.55	0.575
380.01	0.579
380.48	0.575
380.94	0.571
381.40	0.570
381.87	0.569
382.33	0.566
382.79	0.563
383.25	0.563
383.72	0.567
384.18	0.561
384.64	0.554
385.10	0.558
385.56	0.559
386.03	0.552
386.49	0.549
386.95	0.551
387.41	0.548
387.88	0.549
388.34	0.542
388.80	0.544
389.26	0.543
389.72	0.541
390.19	0.546
390.65	0.540
391.11	0.533
391.57	0.535
392.04	0.534
392.50	0.531
392.96	0.530
393.42	0.525
393.88	0.529
394.34	0.525
394.81	0.525
395.27	0.521
395.73	0.522
396.19	0.520
396.65	0.517
397.12	0.516
397.58	0.518
398.04	0.515
398.50	0.514
398.96	0.512
399.42	0.512
399.89	0.503
400.35	0.508
400.81	0.505
401.27	0.505
401.73	0.505
402.19	0.500
402.65	0.499
403.12	0.494
403.58	0.494
404.04	0.495
404.50	0.500
404.96	0.493
405.42	0.491
405.88	0.490
406.34	0.489
406.81	0.491
407.27	0.486
407.73	0.490
408.19	0.480
408.65	0.484
409.11	0.481
409.57	0.481
410.03	0.478
410.49	0.480
410.96	0.475
411.42	0.475
411.88	0.475
412.34	0.473
412.80	0.473
413.26	0.469
413.72	0.465
414.18	0.470
414.64	0.462
415.10	0.467
415.56	0.468
416.02	0.468
416.48	0.461
416.95	0.460
417.41	0.457
417.87	0.458
418.33	0.458
418.79	0.455
419.25	0.457
419.71	0.452
420.17	0.451
420.63	0.449
421.09	0.451
421.55	0.446
422.01	0.445
422.47	0.451
422.93	0.447
423.39	0.447
423.85	0.444
424.31	0.444
424.77	0.440
425.23	0.440
425.69	0.446
426.15	0.441
426.61	0.437
427.07	0.434
427.53	0.434
427.99	0.433
428.45	0.431
428.91	0.433
429.37	0.432
429.83	0.430
430.29	0.429
430.75	0.432
431.21	0.428
431.67	0.426
432.13	0.429
432.59	0.424
433.05	0.422
433.51	0.422
433.97	0.421
434.43	0.421
434.89	0.420
435.35	0.420
435.81	0.419
436.27	0.417
436.73	0.413
437.19	0.414
437.65	0.412
438.11	0.409
438.57	0.415
439.03	0.412
439.48	0.408
439.94	0.408
440.40	0.407
440.86	0.409
441.32	0.403
441.78	0.403
442.24	0.403
442.70	0.404
443.16	0.398
443.62	0.400
444.08	0.400
444.54	0.397
444.99	0.394
445.45	0.397
445.91	0.394
446.37	0.395
446.83	0.392
447.29	0.395
447.75	0.391
448.21	0.390
448.67	0.388
449.12	0.389
449.58	0.388
450.04	0.386
450.50	0.388
450.96	0.388
451.42	0.385
451.88	0.383
452.34	0.386
452.79	0.380
453.25	0.383
453.71	0.381
454.17	0.380
454.63	0.380
455.09	0.380
455.55	0.380
456.00	0.378
456.46	0.378
456.92	0.375
457.38	0.375
457.84	0.370
458.30	0.368
458.75	0.373
459.21	0.367
459.67	0.370
460.13	0.367
460.59	0.368
461.04	0.366
461.50	0.369
461.96	0.364
462.42	0.365
462.88	0.362
463.33	0.361
463.79	0.362
464.25	0.361
464.71	0.362
465.17	0.361
465.62	0.360
466.08	0.361
466.54	0.357
467.00	0.359
467.46	0.359
467.91	0.356
468.37	0.357
468.83	0.355
469.29	0.354
469.74	0.351
470.20	0.354
470.66	0.352
471.12	0.350
471.57	0.350
472.03	0.350
472.49	0.348
472.95	0.347
473.40	0.344
473.86	0.344
474.32	0.342
474.78	0.342
475.23	0.343
475.69	0.345
476.15	0.340
476.60	0.345
477.06	0.341
477.52	0.339
477.98	0.339
478.43	0.339
478.89	0.339
479.35	0.336
479.80	0.337
480.26	0.339
480.72	0.335
481.18	0.335
481.63	0.333
482.09	0.333
482.55	0.333
483.00	0.330
483.46	0.331
483.92	0.332
484.37	0.330
484.83	0.328
485.29	0.328
485.74	0.328
486.20	0.328
486.66	0.326
487.11	0.327
487.57	0.325
488.03	0.325
488.48	0.323
488.94	0.323
489.40	0.324
489.85	0.322
490.31	0.321
490.77	0.319
491.22	0.321
491.68	0.321
492.13	0.318
492.59	0.318
493.05	0.317
493.50	0.316
493.96	0.316
494.42	0.313
494.87	0.312
495.33	0.313
495.78	0.315
496.24	0.313
496.70	0.311
497.15	0.311
497.61	0.311
498.06	0.312
498.52	0.308
498.98	0.310
499.43	0.310
499.89	0.309
500.34	0.307
500.80	0.308
501.25	0.307
501.71	0.304
502.17	0.306
502.62	0.306
503.08	0.306
503.53	0.303
503.99	0.300
504.44	0.302
504.90	0.301
505.36	0.302
505.81	0.300
506.27	0.303
506.72	0.300
507.18	0.302
507.63	0.298
508.09	0.299
508.54	0.298
509.00	0.298
509.45	0.298
509.91	0.297
510.36	0.295
510.82	0.294
511.27	0.294
511.73	0.294
512.19	0.292
512.64	0.290
513.10	0.292
513.55	0.291
514.01	0.289
514.46	0.291
514.92	0.287
515.37	0.291
515.83	0.289
516.28	0.286
516.73	0.287
517.19	0.287
517.64	0.285
518.10	0.283
518.55	0.286
519.01	0.283
519.46	0.283
519.92	0.285
520.37	0.280
520.83	0.282
521.28	0.281
521.74	0.282
522.19	0.283
522.65	0.280
523.10	0.281
523.55	0.280
524.01	0.281
524.46	0.278
524.92	0.277
525.37	0.278
525.83	0.276
526.28	0.275
526.73	0.278
527.19	0.277
527.64	0.276
528.10	0.275
528.55	0.276
529.01	0.274
529.46	0.273
529.91	0.273
530.37	0.273
530.82	0.272
531.28	0.271
531.73	0.270
532.18	0.269
532.64	0.269
533.09	0.267
533.54	0.269
534.00	0.269
534.45	0.271
534.91	0.269
535.36	0.270
535.81	0.267
536.27	0.265
536.72	0.268
537.17	0.265
537.63	0.265
538.08	0.264
538.54	0.266
538.99	0.265
539.44	0.266
539.90	0.263
540.35	0.261
540.80	0.263
541.26	0.262
541.71	0.259
542.16	0.261
542.62	0.259
543.07	0.260
543.52	0.261
543.98	0.257
544.43	0.259
544.88	0.258
545.34	0.258
545.79	0.257
546.24	0.255
546.69	0.256
547.15	0.258
547.60	0.255
548.05	0.257
548.51	0.253
548.96	0.255
549.41	0.255
549.86	0.253
550.32	0.255
550.77	0.254
551.22	0.254
551.68	0.250
552.13	0.249
552.58	0.249
553.03	0.251
553.49	0.250
553.94	0.247
554.39	0.250
554.84	0.251
555.30	0.250
555.75	0.250
556.20	0.247
556.65	0.247
557.11	0.245
557.56	0.243
558.01	0.250
558.46	0.247
558.92	0.245
559.37	0.244
559.82	0.245
560.27	0.245
560.72	0.246
561.18	0.243
561.63	0.243
562.08	0.241
562.53	0.243
562.99	0.243
563.44	0.242
563.89	0.240
564.34	0.240
564.79	0.241
565.25	0.239
565.70	0.240
566.15	0.239
566.60	0.238
567.05	0.239
567.50	0.239
567.96	0.237
568.41	0.237
568.86	0.237
569.31	0.235
569.76	0.234
570.21	0.234
570.67	0.235
571.12	0.237
571.57	0.232
572.02	0.233
572.47	0.232
572.92	0.233
573.37	0.232
573.83	0.230
574.28	0.232
574.73	0.230
575.18	0.230
575.63	0.231
576.08	0.228
576.53	0.229
576.98	0.229
577.44	0.225
577.89	0.228
578.34	0.226
578.79	0.228
579.24	0.228
579.69	0.227
580.14	0.224
580.59	0.225
581.04	0.223
581.49	0.225
581.95	0.223
582.40	0.222
582.85	0.224
583.30	0.222
583.75	0.221
584.20	0.223
584.65	0.224
585.10	0.221
585.55	0.222
586.00	0.221
586.45	0.220
586.90	0.222
587.35	0.221
587.80	0.221
588.25	0.220
588.71	0.219
589.16	0.218
589.61	0.221
590.06	0.219
590.51	0.217
590.96	0.218
591.41	0.216
591.86	0.217
592.31	0.216
592.76	0.217
593.21	0.217
593.66	0.218
594.11	0.217
594.56	0.215
595.01	0.216
595.46	0.217
595.91	0.216
596.36	0.214
596.81	0.216
597.26	0.214
597.71	0.215
598.16	0.215
598.61	0.212
599.06	0.214
599.51	0.215
599.96	0.213
600.41	0.213
600.86	0.212
601.31	0.212
601.76	0.213
602.21	0.214
602.65	0.211
603.10	0.212
603.55	0.210
604.00	0.211
604.45	0.211
604.90	0.210
605.35	0.209
605.80	0.209
606.25	0.209
606.70	0.208
607.15	0.207
607.60	0.206
608.05	0.208
608.50	0.206
608.95	0.205
609.39	0.207
609.84	0.207
610.29	0.206
610.74	0.205
611.19	0.203
611.64	0.205
612.09	0.204
612.54	0.204
612.99	0.204
613.44	0.204
613.88	0.205
614.33	0.203
614.78	0.203
615.23	0.200
615.68	0.201
616.13	0.201
616.58	0.201
617.03	0.201
617.47	0.202
617.92	0.200
618.37	0.200
618.82	0.200
619.27	0.199
619.72	0.199
620.17	0.199
620.61	0.198
621.06	0.199
621.51	0.200
621.96	0.197
622.41	0.198
622.86	0.195
623.30	0.198
623.75	0.198
624.20	0.196
624.65	0.196
625.10	0.195
625.54	0.196
625.99	0.195
626.44	0.195
626.89	0.195
627.34	0.195
627.78	0.194
628.23	0.193
628.68	0.191
629.13	0.193
629.58	0.195
630.02	0.193
630.47	0.192
630.92	0.193
631.37	0.193
631.81	0.192
632.26	0.189
632.71	0.192
633.16	0.192
633.61	0.191
634.05	0.189
634.50	0.191
634.95	0.191
635.40	0.191
635.84	0.191
636.29	0.191
636.74	0.192
637.18	0.191
637.63	0.189
638.08	0.188
638.53	0.188
638.97	0.187
639.42	0.189
639.87	0.189
640.32	0.187
640.76	0.189
641.21	0.189
641.66	0.188
642.10	0.188
642.55	0.187
643.00	0.187
643.44	0.186
643.89	0.188
644.34	0.185
644.79	0.184
645.23	0.187
645.68	0.184
646.13	0.186
646.57	0.185
647.02	0.185
647.47	0.187
647.91	0.184
648.36	0.184
648.81	0.187
649.25	0.184
649.70	0.182
650.15	0.182
650.59	0.183
651.04	0.181
651.48	0.186
651.93	0.183
652.38	0.180
652.82	0.183
653.27	0.181
653.72	0.183
654.16	0.182
654.61	0.181
655.06	0.180
655.50	0.179
655.95	0.180
656.39	0.173
656.84	0.176
657.29	0.183
657.73	0.178
658.18	0.178
658.62	0.180
659.07	0.179
659.52	0.180
659.96	0.180
660.41	0.179
660.85	0.178
661.30	0.177
661.74	0.179
662.19	0.178
662.64	0.177
663.08	0.176
663.53	0.177
663.97	0.176
664.42	0.176
664.86	0.177
665.31	0.177
665.75	0.175
666.20	0.177
666.65	0.175
667.09	0.176
667.54	0.177
667.98	0.175
668.43	0.174
668.87	0.174
669.32	0.172
669.76	0.173
670.21	0.175
670.65	0.171
671.10	0.174
671.54	0.172
671.99	0.173
672.43	0.171
672.88	0.170
673.32	0.171
673.77	0.169
674.21	0.170
674.66	0.171
675.10	0.171
675.55	0.169
675.99	0.170
676.44	0.170
676.88	0.170
677.33	0.167
677.77	0.168
678.22	0.167
678.66	0.168
679.11	0.166
679.55	0.168
679.99	0.167
680.44	0.167
680.88	0.166
681.33	0.165
681.77	0.164
682.22	0.166
682.66	0.167
683.11	0.165
683.55	0.166
683.99	0.165
684.44	0.164
684.88	0.163
685.33	0.163
685.77	0.165
686.21	0.163
686.66	0.162
687.10	0.162
687.55	0.163
687.99	0.165
688.44	0.165
688.88	0.163
689.32	0.163
689.77	0.161
690.21	0.160
690.65	0.162
691.10	0.162
691.54	0.160
691.99	0.161
692.43	0.160
692.87	0.161
693.32	0.160
693.76	0.161
694.20	0.161
694.65	0.161
695.09	0.161
695.53	0.160
695.98	0.160
696.42	0.160
696.86	0.159
697.31	0.158
697.75	0.158
698.19	0.156
698.64	0.156
699.08	0.157
699.52	0.158
699.97	0.158
700.41	0.157
700.85	0.157
701.30	0.155
701.74	0.157
702.18	0.157
702.63	0.157
703.07	0.156
703.51	0.158
703.96	0.158
704.40	0.156
704.84	0.158
705.28	0.156
705.73	0.154
706.17	0.154
706.61	0.156
707.06	0.155
707.50	0.156
707.94	0.154
708.38	0.152
708.83	0.156
709.27	0.155
709.71	0.154
710.15	0.155
710.60	0.154
711.04	0.153
711.48	0.155
711.92	0.155
712.37	0.153
712.81	0.154
713.25	0.155
713.69	0.154
714.13	0.154
714.58	0.153
715.02	0.155
715.46	0.154
715.90	0.152
716.35	0.150
716.79	0.154
717.23	0.153
717.67	0.154
718.11	0.154
718.56	0.153
719.00	0.153
719.44	0.151
719.88	0.151
720.32	0.150
720.76	0.153
721.21	0.154
721.65	0.150
722.09	0.151
722.53	0.152
722.97	0.152
723.41	0.151
723.86	0.151
724.30	0.150
724.74	0.156
725.18	0.154
725.62	0.148
726.06	0.152
726.50	0.152
726.95	0.149
727.39	0.152
727.83	0.150
728.27	0.151
728.71	0.152
729.15	0.153
729.59	0.151
730.03	0.149
730.48	0.149
730.92	0.150
731.36	0.152
731.80	0.151
732.24	0.151
732.68	0.149
733.12	0.150
733.56	0.151
734.00	0.148
734.44	0.150
734.89	0.152
735.33	0.151
735.77	0.154
736.21	0.154
736.65	0.149
737.09	0.150
737.53	0.153
737.97	0.152
738.41	0.153
738.85	0.154
739.29	0.154
739.73	0.150
740.17	0.150
740.61	0.150
741.05	0.152
741.49	0.152
741.93	0.152
742.37	0.146
742.81	0.150
743.26	0.149
743.70	0.150
744.14	0.148
744.58	0.148
745.02	0.148
745.46	0.150
745.90	0.146
746.34	0.150
746.78	0.151
747.22	0.153
747.66	0.150
748.10	0.149
748.54	0.149
748.98	0.149
749.42	0.149
749.86	0.147
750.29	0.148
750.73	0.146
751.17	0.145
751.61	0.146
752.05	0.149
752.49	0.147
752.93	0.147
753.37	0.146
753.81	0.146
754.25	0.146
754.69	0.145
755.13	0.145
755.57	0.147
756.01	0.146
756.45	0.146
756.89	0.145
757.33	0.145
757.77	0.145
758.21	0.146
758.64	0.143
759.08	0.141
759.52	0.145
759.96	0.146
760.40	0.146
760.84	0.141
761.28	0.144
761.72	0.147
762.16	0.144
762.60	0.145
763.03	0.143
763.47	0.142
763.91	0.143
764.35	0.143
764.79	0.141
765.23	0.140
765.67	0.143
766.11	0.139
766.54	0.139
766.98	0.141
767.42	0.142
767.86	0.141
768.30	0.142
768.74	0.144
769.17	0.143
769.61	0.142
770.05	0.141
770.49	0.140
770.93	0.143
771.37	0.138
771.80	0.140
772.24	0.139
772.68	0.138
773.12	0.138
773.56	0.140
774.00	0.139
774.43	0.138
774.87	0.139
775.31	0.138
775.75	0.139
776.19	0.140
776.62	0.135
777.06	0.140
777.50	0.138
777.94	0.139
778.37	0.138
778.81	0.138
779.25	0.140
779.69	0.139
780.13	0.142
780.56	0.137
781.00	0.137
781.44	0.138
781.88	0.136
782.31	0.137
782.75	0.135
783.19	0.139
783.63	0.138
784.06	0.135
784.50	0.139
784.94	0.138
785.37	0.138
785.81	0.139
786.25	0.140
786.69	0.133
787.12	0.137
787.56	0.131
788.00	0.138
788.43	0.140
788.87	0.137
789.31	0.136
789.75	0.139
790.18	0.135
790.62	0.137
791.06	0.134
791.49	0.133
791.93	0.136
792.37	0.136
792.80	0.137
793.24	0.137
793.68	0.135
794.11	0.136
794.55	0.140
794.99	0.135
795.42	0.133
795.86	0.135
796.30	0.136
796.73	0.133
797.17	0.133
797.61	0.134
798.04	0.131
798.48	0.136
798.91	0.132
799.35	0.132
799.79	0.137
800.22	0.132
800.66	0.130
801.10	0.134
801.53	0.133
801.97	0.136
802.40	0.136
802.84	0.132
803.28	0.130
803.71	0.133
804.15	0.133
804.58	0.131
805.02	0.136
805.46	0.132
805.89	0.132
806.33	0.134
806.76	0.129
807.20	0.132
807.63	0.132
808.07	0.131
808.51	0.130
808.94	0.128
809.38	0.130
809.81	0.132
810.25	0.134
810.68	0.134
811.12	0.129
811.55	0.133
811.99	0.134
812.42	0.133
812.86	0.129
813.29	0.129
813.73	0.135
814.17	0.128
814.60	0.133
815.04	0.129
815.47	0.128
815.91	0.130
816.34	0.131
816.78	0.130
817.21	0.134
817.65	0.134
818.08	0.129
818.52	0.133
818.95	0.132
819.39	0.131
819.82	0.131
820.25	0.132
820.69	0.124
821.12	0.129
821.56	0.132
821.99	0.127
822.43	0.128
822.86	0.130
823.30	0.130
823.73	0.128
824.17	0.130
824.60	0.124
825.04	0.134
825.47	0.131
825.90	0.128
826.34	0.132
826.77	0.127
827.21	0.129
827.64	0.131
828.08	0.130
828.51	0.127
828.94	0.132
829.38	0.129
829.81	0.134
830.25	0.135
830.68	0.131
831.11	0.133
831.55	0.127
831.98	0.129
832.42	0.131
832.85	0.136
833.28	0.134
833.72	0.136
834.15	0.131
834.58	0.136
835.02	0.135
835.45	0.139
835.88	0.136
836.32	0.140
836.75	0.135
837.19	0.135
837.62	0.133
838.05	0.134
838.49	0.135
838.92	0.139
839.35	0.139
839.79	0.134
840.22	0.134
840.65	0.133
841.09	0.136
841.52	0.130
841.95	0.133
842.39	0.135
842.82	0.128
843.25	0.134
843.68	0.138
844.12	0.132
844.55	0.134
844.98	0.132
845.42	0.136
845.85	0.125
846.28	0.129
846.71	0.135
847.15	0.137
847.58	0.138
848.01	0.138
848.45	0.138
848.88	0.140
849.31	0.133
849.74	0.134
850.18	0.136
850.61	0.136
851.04	0.137
851.47	0.139
851.91	0.138
852.34	0.136
852.77	0.140
853.20	0.136
853.64	0.133
854.07	0.138
854.50	0.133
854.93	0.137
855.36	0.133
855.80	0.132
856.23	0.134
856.66	0.140
857.09	0.133
857.52	0.136
857.96	0.126
858.39	0.133
858.82	0.130
859.25	0.136
859.68	0.134
860.12	0.132
860.55	0.131
860.98	0.134
861.41	0.133
861.84	0.133
862.27	0.132
862.71	0.129
863.14	0.130
863.57	0.135
864.00	0.131
864.43	0.139
864.86	0.134
865.30	0.141
865.73	0.139
866.16	0.130
866.59	0.132
867.02	0.137
867.45	0.133
867.88	0.129
868.31	0.134
868.75	0.135
869.18	0.137
869.61	0.141
870.04	0.138
870.47	0.136
870.90	0.133
871.33	0.134
871.76	0.137
872.19	0.137
872.62	0.128
873.06	0.130
873.49	0.139
873.92	0.131
874.35	0.136
874.78	0.135
875.21	0.133
875.64	0.131
876.07	0.137
876.50	0.140
876.93	0.141
877.36	0.135
877.79	0.132
878.22	0.138
878.65	0.135
879.08	0.136
879.51	0.148
879.94	0.139
880.37	0.139
880.80	0.142
881.23	0.135
881.67	0.135
882.10	0.134
882.53	0.136
882.96	0.139
883.39	0.136
883.82	0.133
884.25	0.137
884.68	0.139
885.11	0.140
885.54	0.137
885.97	0.136
886.39	0.132
886.82	0.136
887.25	0.140
887.68	0.142
888.11	0.135
888.54	0.138
888.97	0.142
889.40	0.140
889.83	0.137
890.26	0.137
890.69	0.141
891.12	0.136
891.55	0.136
891.98	0.140
892.41	0.133
892.84	0.139
893.27	0.139
893.70	0.138
894.13	0.139
894.56	0.134
894.98	0.140
895.41	0.144
895.84	0.145
896.27	0.137
896.70	0.141
897.13	0.143
897.56	0.139
897.99	0.141
898.42	0.139
898.85	0.144
899.27	0.140
899.70	0.141
900.13	0.139
900.56	0.141
900.99	0.139
901.42	0.145
901.85	0.137
902.28	0.139
902.70	0.139
903.13	0.143
903.56	0.140
903.99	0.136
904.42	0.142
904.85	0.141
905.27	0.140
905.70	0.140
906.13	0.146
906.56	0.137
906.99	0.136
907.42	0.137
907.84	0.133
908.27	0.139
908.70	0.146
909.13	0.141
909.56	0.139
909.98	0.140
910.41	0.138
910.84	0.140
911.27	0.142
911.70	0.136
912.12	0.138
912.55	0.137
912.98	0.140
913.41	0.145
913.84	0.142
914.26	0.141
914.69	0.144
915.12	0.139
915.55	0.137
915.97	0.139
916.40	0.139
916.83	0.139
917.26	0.140
917.68	0.138
918.11	0.139
918.54	0.138
918.97	0.137
919.39	0.138
919.82	0.142
920.25	0.140
920.67	0.137
921.10	0.143
921.53	0.143
921.96	0.143
922.38	0.141
922.81	0.140
923.24	0.145
923.66	0.139
924.09	0.145
924.52	0.143
924.94	0.144
925.37	0.147
925.80	0.149
926.22	0.144
926.65	0.142
927.08	0.148
927.50	0.148
927.93	0.149
928.36	0.146
928.78	0.146
929.21	0.148
929.64	0.151
930.06	0.155
930.49	0.152
930.92	0.157
931.34	0.153
931.77	0.153
932.20	0.155
932.62	0.155
933.05	0.156
933.47	0.158
933.90	0.156
934.33	0.156
934.75	0.157
935.18	0.164
935.61	0.162
936.03	0.159
936.46	0.164
936.88	0.168
937.31	0.169
937.73	0.166
938.16	0.167
938.59	0.174
939.01	0.176
939.44	0.183
939.86	0.181
940.29	0.182
940.71	0.182
941.14	0.182
941.57	0.187
941.99	0.186
942.42	0.186
942.84	0.194
943.27	0.199
943.69	0.192
944.12	0.193
944.54	0.200
944.97	0.200
945.39	0.200
945.82	0.202
946.24	0.207
946.67	0.196
947.09	0.201
947.52	0.198
947.94	0.214
948.37	0.210
948.79	0.216
949.22	0.220
949.64	0.216
950.07	0.223
950.49	0.220
950.92	0.229
951.34	0.219
951.77	0.224
952.19	0.228
952.62	0.239
953.04	0.237
953.47	0.240
953.89	0.248
954.32	0.247
954.74	0.252
955.17	0.246
955.59	0.260
956.01	0.255
956.44	0.255
956.86	0.265
957.29	0.264
957.71	0.268
958.14	0.270
958.56	0.270
958.98	0.272
959.41	0.273
959.83	0.275
960.26	0.285
960.68	0.283
961.10	0.280
961.53	0.284
961.95	0.285
962.38	0.283
962.80	0.278
963.22	0.287
963.65	0.289
964.07	0.282
964.50	0.297
964.92	0.294
965.34	0.293
965.77	0.285
966.19	0.293
966.61	0.294
967.04	0.292
967.46	0.294
967.88	0.299
968.31	0.291
968.73	0.292
969.15	0.290
969.58	0.295
970.00	0.291
970.42	0.292
970.85	0.294
971.27	0.296
971.69	0.294
972.12	0.299
972.54	0.300
972.96	0.302
973.39	0.305
973.81	0.306
974.23	0.298
974.65	0.296
975.08	0.298
975.50	0.302
975.92	0.300
976.35	0.301
976.77	0.298
977.19	0.303
977.61	0.292
978.04	0.301
978.46	0.305
978.88	0.301
979.30	0.300
979.73	0.302
980.15	0.307
980.57	0.299
980.99	0.301
981.42	0.301
981.84	0.299
982.26	0.296
982.68	0.298
983.11	0.296
983.53	0.299
983.95	0.300
984.37	0.298
984.79	0.297
985.22	0.293
985.64	0.290
986.06	0.298
986.48	0.297
986.90	0.288
987.33	0.291
987.75	0.289
988.17	0.293
988.59	0.291
989.01	0.291
989.43	0.287
989.86	0.291
990.28	0.282
990.70	0.291
991.12	0.289
991.54	0.290
991.96	0.284
992.39	0.285
992.81	0.284
993.23	0.285
993.65	0.283
994.07	0.283
994.49	0.278
994.91	0.280
995.34	0.282
995.76	0.275
996.18	0.283
996.60	0.282
997.02	0.285
997.44	0.272
997.86	0.283
998.28	0.273
998.70	0.280
999.12	0.275
999.55	0.270
999.97	0.280
1000.39	0.276
1000.81	0.276
1001.23	0.276
1001.65	0.276
1002.07	0.270
1002.49	0.270
1002.91	0.270
1003.33	0.267
1003.75	0.261
1004.17	0.268
1004.59	0.262
1005.01	0.267
1005.43	0.263
1005.85	0.266
1006.28	0.261
1006.70	0.251
1007.12	0.260
1007.54	0.261
1007.96	0.262
1008.38	0.255
1008.80	0.257
1009.22	0.256
1009.64	0.249
1010.06	0.251
1010.48	0.258
1010.90	0.256
1011.32	0.245
1011.74	0.252
1012.16	0.253
1012.58	0.248
1013.00	0.250
1013.42	0.245
1013.84	0.247
1014.26	0.248
1014.67	0.247
1015.09	0.238
1015.51	0.243
1015.93	0.236
1016.35	0.246
1016.77	0.248
1017.19	0.241
1017.61	0.246
1018.03	0.237
1018.45	0.235
1018.87	0.234
1019.29	0.236
1019.71	0.240
1020.13	0.232
1020.55	0.231
1020.97	0.227
1021.38	0.229
1021.80	0.215
1022.22	0.236
1022.64	0.222
1023.06	0.233
1023.48	0.223
1023.90	0.210
1024.32	0.215
1024.74	0.217
1025.15	0.220
1025.57	0.216
1025.99	0.217
1026.41	0.215
1026.83	0.218
1027.25	0.220
1027.67	0.227
1028.08	0.209
1028.50	0.220
1028.92	0.223
1029.34	0.219
1029.76	0.227
1030.18	0.220
1030.60	0.225
1031.01	0.206
1031.43	0.219
1031.85	0.217
1032.27	0.212
1032.69	0.207
1033.10	0.220
1033.52	0.203
1033.94	0.200
1034.36	0.191
1034.78	0.211
1035.19	0.214
1035.61	0.195
1036.03	0.207
1036.45	0.211
1036.87	0.200
1037.28	0.193
1037.70	0.196
1038.12	0.197
1038.54	0.192
1038.95	0.196
1039.37	0.212
1039.79	0.187
1040.21	0.188
1040.62	0.215
1041.04	0.208
1041.46	0.191
1041.88	0.200
1042.29	0.211
1042.71	0.207
1043.13	0.206
1043.55	0.196
1043.96	0.208
1044.38	0.207
1044.80	0.193
1045.21	0.193
1045.63	0.174
1046.05	0.171
1046.47	0.207
1046.88	0.195
1047.30	0.201
1047.72	0.187
1048.13	0.172
1048.55	0.192
1048.97	0.187
1049.38	0.176
1049.80	0.182
1050.22	0.207
1050.63	0.182
1051.05	0.205
1051.47	0.181
1051.88	0.196
1052.30	0.187
1052.72	0.183
1053.13	0.206
1053.55	0.197
1053.97	0.178
1054.38	0.199
1054.80	0.203
1055.21	0.189
1055.63	0.175
1056.05	0.197
1056.46	0.197
1056.88	0.214
1057.29	0.187
1057.71	0.211
1058.13	0.214
1058.54	0.184
1058.96	0.200
1059.37	0.209
1059.79	0.208
1060.21	0.207
1060.62	0.253
1061.04	0.186
1061.45	0.221
1061.87	0.236
1062.28	0.217
1062.70	0.222
1063.12	0.220
1063.53	0.199
1063.95	0.231
1064.36	0.223
1064.78	0.281
1065.19	0.300
1065.61	0.221
1066.02	0.268
1066.44	0.272
1066.85	0.273
1067.27	0.250
1067.68	0.227
1068.10	0.322
1068.51	0.280
1068.93	0.256
1069.35	0.413
1069.76	0.332
1070.17	0.293
1070.59	0.387
1071.00	0.290
1071.42	0.221
1071.83	0.339
1072.25	0.334
1072.66	0.325
1073.08	0.464
1073.49	0.464
1073.91	0.468
1074.32	0.417
1074.74	0.310
1075.15	0.395
1075.57	0.423
1075.98	0.556
1076.40	0.238
1076.81	0.430
1077.22	0.529
1077.64	0.352
1078.05	0.498
1078.47	0.514
1078.88	0.740
1079.30	0.359
1079.71	-0.000
1080.12	-0.000
1080.54	-0.000
1080.95	0.901
1081.37	1.134
1081.78	0.653
1082.19	0.528
1082.61	-0.000
1083.02	-0.000
1083.44	-0.000
1083.85	0.399
1084.26	-0.000
1084.68	-0.000
1085.09	0.953
1085.50	-0.000
1085.92	-0.000
1086.33	-0.000
1086.74	-0.000
1087.16	-0.000
1087.57	-0.000
1087.98	-0.000
1088.40	0.937
1088.81	-0.000
1089.22	-0.000
1089.64	-0.000
1090.05	-0.000
1090.46	-0.000
1090.88	-0.000
1091.29	-0.000
1091.70	-0.000
1092.12	-0.000
1092.53	-0.000
1092.94	-0.000
1093.36	-0.000
1093.77	-0.000
1094.18	0.637
1094.59	-0.000
1095.01	-0.000
1095.42	-0.000
1095.83	-0.000
1096.25	-0.000
1096.66	-0.000
1097.07	-0.000
1097.48	-0.000
1097.90	-0.000
1098.31	-0.000
1098.72	1.222
1099.13	-0.000
>>>>>End Processed Spectral Data<<<<<
