SpectraSuite Data File
++++++++++++++++++++++++++++++++++++
Date: Sun Apr 24 17:44:18 CEST 2016
User: spectrasuite
Dark Spectrum Present: Yes
Reference Spectrum Present: Yes
Number of Sampled Component Spectra: 1
Spectrometers: HR+C0708
Integration Time (usec): 1000 (HR+C0708)
Spectra Averaged: 10 (HR+C0708)
Boxcar Smoothing: 0 (HR+C0708)
Correct for Electrical Dark: No (HR+C0708)
Strobe/Lamp Enabled: No (HR+C0708)
Correct for Detector Non-linearity: No (HR+C0708)
Correct for Stray Light: No (HR+C0708)
Number of Pixels in Processed Spectrum: 2048
>>>>>Begin Processed Spectral Data<<<<<
188.76	-0.000
189.23	-0.000
189.70	-0.000
190.17	-0.000
190.64	-0.000
191.12	-0.000
191.59	-0.000
192.06	-0.000
192.53	-0.000
193.01	-0.000
193.48	-0.000
193.95	-0.000
194.42	-0.000
194.90	1.813
195.37	-0.000
195.84	-0.000
196.31	-0.000
196.78	-0.000
197.26	-0.000
197.73	-0.000
198.20	-0.000
198.67	-0.000
199.14	-0.000
199.62	-0.000
200.09	-0.000
200.56	-0.000
201.03	-0.000
201.50	-0.000
201.97	-0.000
202.45	-0.000
202.92	0.915
203.39	1.157
203.86	-0.000
204.33	-0.000
204.80	1.680
205.28	1.464
205.75	-0.000
206.22	-0.000
206.69	1.592
207.16	-0.000
207.63	-0.000
208.11	0.986
208.58	1.782
209.05	1.236
209.52	-0.000
209.99	1.668
210.46	-0.000
210.93	1.332
211.41	1.817
211.88	-0.000
212.35	-0.000
212.82	-0.000
213.29	1.397
213.76	-0.000
214.23	1.919
214.70	-0.000
215.18	-0.000
215.65	1.346
216.12	-0.000
216.59	-0.000
217.06	-0.000
217.53	-0.000
218.00	-0.000
218.47	1.230
218.94	-0.000
219.41	-0.000
219.89	-0.000
220.36	-0.000
220.83	-0.000
221.30	-0.000
221.77	-0.000
222.24	-0.000
222.71	-0.000
223.18	-0.000
223.65	1.784
224.12	-0.000
224.59	-0.000
225.06	-0.000
225.54	1.559
226.01	1.491
226.48	-0.000
226.95	-0.000
227.42	-0.000
227.89	-0.000
228.36	2.285
228.83	2.442
229.30	1.915
229.77	2.091
230.24	2.095
230.71	-0.000
231.18	2.283
231.65	-0.000
232.12	2.172
232.59	-0.000
233.06	-0.000
233.53	2.218
234.00	1.944
234.47	-0.000
234.94	-0.000
235.41	2.473
235.88	-0.000
236.35	-0.000
236.82	2.462
237.29	2.342
237.76	-0.000
238.23	4.295
238.70	2.445
239.17	2.573
239.64	2.808
240.11	-0.000
240.58	2.936
241.05	-0.000
241.52	2.827
241.99	-0.000
242.46	3.227
242.93	-0.000
243.40	2.842
243.87	2.671
244.34	2.448
244.81	3.725
245.28	-0.000
245.75	3.075
246.22	-0.000
246.69	4.075
247.16	-0.000
247.63	2.830
248.10	3.003
248.57	3.181
249.04	-0.000
249.51	3.501
249.98	-0.000
250.45	-0.000
250.92	3.667
251.39	-0.000
251.85	-0.000
252.32	-0.000
252.79	-0.000
253.26	3.045
253.73	-0.000
254.20	2.940
254.67	2.753
255.14	3.070
255.61	3.336
256.08	2.938
256.55	4.255
257.02	2.821
257.49	3.203
257.95	2.757
258.42	2.836
258.89	2.604
259.36	2.749
259.83	2.897
260.30	2.739
260.77	2.774
261.24	2.455
261.71	2.634
262.17	2.556
262.64	2.471
263.11	2.468
263.58	2.581
264.05	2.349
264.52	2.359
264.99	2.382
265.46	2.337
265.92	2.367
266.39	2.258
266.86	2.324
267.33	2.294
267.80	2.217
268.27	2.294
268.74	2.249
269.20	2.252
269.67	2.168
270.14	2.166
270.61	2.161
271.08	2.170
271.55	2.106
272.01	2.107
272.48	2.106
272.95	2.071
273.42	2.070
273.89	2.069
274.36	2.030
274.82	1.999
275.29	1.961
275.76	1.950
276.23	1.965
276.70	1.961
277.16	1.926
277.63	1.905
278.10	1.893
278.57	1.891
279.04	1.881
279.50	1.900
279.97	1.874
280.44	1.828
280.91	1.836
281.38	1.802
281.84	1.837
282.31	1.832
282.78	1.826
283.25	1.796
283.72	1.764
284.18	1.760
284.65	1.776
285.12	1.747
285.59	1.729
286.05	1.745
286.52	1.715
286.99	1.711
287.46	1.710
287.92	1.677
288.39	1.659
288.86	1.680
289.33	1.670
289.79	1.650
290.26	1.656
290.73	1.634
291.20	1.622
291.66	1.620
292.13	1.615
292.60	1.605
293.07	1.587
293.53	1.563
294.00	1.590
294.47	1.575
294.93	1.552
295.40	1.561
295.87	1.544
296.34	1.550
296.80	1.511
297.27	1.520
297.74	1.498
298.20	1.503
298.67	1.486
299.14	1.507
299.60	1.487
300.07	1.466
300.54	1.464
301.01	1.451
301.47	1.438
301.94	1.437
302.41	1.435
302.87	1.431
303.34	1.436
303.81	1.402
304.27	1.422
304.74	1.401
305.21	1.371
305.67	1.383
306.14	1.376
306.61	1.386
307.07	1.360
307.54	1.354
308.01	1.362
308.47	1.354
308.94	1.344
309.40	1.340
309.87	1.333
310.34	1.318
310.80	1.321
311.27	1.313
311.74	1.303
312.20	1.300
312.67	1.292
313.13	1.283
313.60	1.296
314.07	1.275
314.53	1.268
315.00	1.259
315.47	1.267
315.93	1.262
316.40	1.242
316.86	1.244
317.33	1.250
317.80	1.227
318.26	1.225
318.73	1.229
319.19	1.222
319.66	1.204
320.13	1.200
320.59	1.199
321.06	1.192
321.52	1.192
321.99	1.184
322.45	1.176
322.92	1.166
323.39	1.170
323.85	1.169
324.32	1.174
324.78	1.156
325.25	1.162
325.71	1.150
326.18	1.136
326.64	1.148
327.11	1.127
327.58	1.132
328.04	1.126
328.51	1.124
328.97	1.119
329.44	1.114
329.90	1.107
330.37	1.107
330.83	1.105
331.30	1.102
331.76	1.097
332.23	1.090
332.69	1.092
333.16	1.076
333.62	1.074
334.09	1.071
334.56	1.070
335.02	1.063
335.49	1.050
335.95	1.051
336.42	1.044
336.88	1.049
337.35	1.039
337.81	1.041
338.28	1.029
338.74	1.037
339.20	1.020
339.67	1.018
340.13	1.015
340.60	1.006
341.06	0.994
341.53	0.990
341.99	0.993
342.46	0.988
342.92	0.981
343.39	0.977
343.85	0.966
344.32	0.961
344.78	0.951
345.25	0.952
345.71	0.948
346.17	0.946
346.64	0.937
347.10	0.931
347.57	0.913
348.03	0.910
348.50	0.897
348.96	0.888
349.43	0.893
349.89	0.872
350.35	0.870
350.82	0.876
351.28	0.855
351.75	0.847
352.21	0.841
352.67	0.823
353.14	0.825
353.60	0.814
354.07	0.803
354.53	0.797
355.00	0.787
355.46	0.781
355.92	0.770
356.39	0.761
356.85	0.754
357.31	0.748
357.78	0.744
358.24	0.727
358.71	0.722
359.17	0.714
359.63	0.708
360.10	0.703
360.56	0.697
361.03	0.692
361.49	0.686
361.95	0.686
362.42	0.678
362.88	0.672
363.34	0.671
363.81	0.663
364.27	0.658
364.73	0.658
365.20	0.655
365.66	0.653
366.12	0.647
366.59	0.640
367.05	0.642
367.51	0.639
367.98	0.633
368.44	0.630
368.90	0.631
369.37	0.630
369.83	0.624
370.29	0.619
370.76	0.612
371.22	0.615
371.68	0.616
372.15	0.611
372.61	0.606
373.07	0.607
373.54	0.603
374.00	0.604
374.46	0.602
374.92	0.597
375.39	0.595
375.85	0.590
376.31	0.593
376.78	0.593
377.24	0.593
377.70	0.586
378.16	0.583
378.63	0.583
379.09	0.584
379.55	0.581
380.01	0.580
380.48	0.582
380.94	0.572
381.40	0.571
381.87	0.569
382.33	0.568
382.79	0.570
383.25	0.564
383.72	0.567
384.18	0.563
384.64	0.562
385.10	0.558
385.56	0.560
386.03	0.555
386.49	0.554
386.95	0.553
387.41	0.549
387.88	0.551
388.34	0.544
388.80	0.546
389.26	0.546
389.72	0.544
390.19	0.544
390.65	0.541
391.11	0.541
391.57	0.538
392.04	0.537
392.50	0.531
392.96	0.528
393.42	0.528
393.88	0.531
394.34	0.528
394.81	0.527
395.27	0.525
395.73	0.525
396.19	0.521
396.65	0.520
397.12	0.516
397.58	0.516
398.04	0.515
398.50	0.513
398.96	0.511
399.42	0.515
399.89	0.513
400.35	0.513
400.81	0.507
401.27	0.507
401.73	0.503
402.19	0.505
402.65	0.502
403.12	0.498
403.58	0.498
404.04	0.500
404.50	0.495
404.96	0.494
405.42	0.492
405.88	0.491
406.34	0.491
406.81	0.489
407.27	0.488
407.73	0.487
408.19	0.485
408.65	0.484
409.11	0.480
409.57	0.484
410.03	0.480
410.49	0.479
410.96	0.475
411.42	0.478
411.88	0.477
412.34	0.469
412.80	0.474
413.26	0.466
413.72	0.470
414.18	0.468
414.64	0.463
415.10	0.468
415.56	0.466
416.02	0.469
416.48	0.464
416.95	0.463
417.41	0.461
417.87	0.459
418.33	0.457
418.79	0.454
419.25	0.453
419.71	0.450
420.17	0.451
420.63	0.453
421.09	0.448
421.55	0.450
422.01	0.450
422.47	0.450
422.93	0.452
423.39	0.449
423.85	0.445
424.31	0.440
424.77	0.443
425.23	0.442
425.69	0.443
426.15	0.438
426.61	0.437
427.07	0.435
427.53	0.437
427.99	0.433
428.45	0.431
428.91	0.429
429.37	0.429
429.83	0.430
430.29	0.429
430.75	0.430
431.21	0.431
431.67	0.429
432.13	0.426
432.59	0.423
433.05	0.423
433.51	0.418
433.97	0.420
434.43	0.422
434.89	0.422
435.35	0.417
435.81	0.418
436.27	0.412
436.73	0.415
437.19	0.414
437.65	0.412
438.11	0.411
438.57	0.413
439.03	0.411
439.48	0.410
439.94	0.409
440.40	0.407
440.86	0.409
441.32	0.407
441.78	0.407
442.24	0.406
442.70	0.403
443.16	0.400
443.62	0.401
444.08	0.404
444.54	0.401
444.99	0.398
445.45	0.397
445.91	0.395
446.37	0.398
446.83	0.392
447.29	0.393
447.75	0.393
448.21	0.392
448.67	0.389
449.12	0.389
449.58	0.391
450.04	0.389
450.50	0.390
450.96	0.389
451.42	0.386
451.88	0.382
452.34	0.386
452.79	0.382
453.25	0.382
453.71	0.385
454.17	0.382
454.63	0.380
455.09	0.378
455.55	0.382
456.00	0.376
456.46	0.375
456.92	0.376
457.38	0.373
457.84	0.374
458.30	0.371
458.75	0.376
459.21	0.369
459.67	0.375
460.13	0.370
460.59	0.371
461.04	0.365
461.50	0.368
461.96	0.367
462.42	0.365
462.88	0.364
463.33	0.362
463.79	0.364
464.25	0.362
464.71	0.361
465.17	0.358
465.62	0.360
466.08	0.358
466.54	0.360
467.00	0.360
467.46	0.357
467.91	0.357
468.37	0.357
468.83	0.357
469.29	0.357
469.74	0.354
470.20	0.354
470.66	0.352
471.12	0.349
471.57	0.353
472.03	0.350
472.49	0.348
472.95	0.351
473.40	0.351
473.86	0.348
474.32	0.346
474.78	0.346
475.23	0.343
475.69	0.345
476.15	0.345
476.60	0.344
477.06	0.345
477.52	0.339
477.98	0.341
478.43	0.338
478.89	0.341
479.35	0.337
479.80	0.343
480.26	0.339
480.72	0.334
481.18	0.337
481.63	0.335
482.09	0.335
482.55	0.335
483.00	0.335
483.46	0.332
483.92	0.330
484.37	0.330
484.83	0.327
485.29	0.328
485.74	0.329
486.20	0.330
486.66	0.329
487.11	0.327
487.57	0.325
488.03	0.324
488.48	0.324
488.94	0.323
489.40	0.324
489.85	0.325
490.31	0.325
490.77	0.322
491.22	0.323
491.68	0.321
492.13	0.321
492.59	0.322
493.05	0.321
493.50	0.317
493.96	0.319
494.42	0.318
494.87	0.315
495.33	0.314
495.78	0.318
496.24	0.316
496.70	0.314
497.15	0.312
497.61	0.314
498.06	0.312
498.52	0.310
498.98	0.311
499.43	0.312
499.89	0.310
500.34	0.309
500.80	0.308
501.25	0.310
501.71	0.309
502.17	0.309
502.62	0.308
503.08	0.308
503.53	0.304
503.99	0.301
504.44	0.303
504.90	0.304
505.36	0.303
505.81	0.303
506.27	0.303
506.72	0.302
507.18	0.301
507.63	0.300
508.09	0.300
508.54	0.298
509.00	0.300
509.45	0.299
509.91	0.299
510.36	0.295
510.82	0.297
511.27	0.296
511.73	0.297
512.19	0.294
512.64	0.296
513.10	0.293
513.55	0.297
514.01	0.291
514.46	0.292
514.92	0.290
515.37	0.292
515.83	0.292
516.28	0.292
516.73	0.287
517.19	0.289
517.64	0.288
518.10	0.287
518.55	0.286
519.01	0.286
519.46	0.286
519.92	0.288
520.37	0.283
520.83	0.282
521.28	0.285
521.74	0.286
522.19	0.286
522.65	0.281
523.10	0.281
523.55	0.282
524.01	0.282
524.46	0.281
524.92	0.281
525.37	0.280
525.83	0.277
526.28	0.277
526.73	0.278
527.19	0.279
527.64	0.281
528.10	0.277
528.55	0.276
529.01	0.279
529.46	0.275
529.91	0.276
530.37	0.275
530.82	0.273
531.28	0.275
531.73	0.271
532.18	0.274
532.64	0.273
533.09	0.271
533.54	0.271
534.00	0.270
534.45	0.272
534.91	0.275
535.36	0.270
535.81	0.271
536.27	0.268
536.72	0.270
537.17	0.271
537.63	0.269
538.08	0.267
538.54	0.268
538.99	0.267
539.44	0.267
539.90	0.266
540.35	0.266
540.80	0.267
541.26	0.264
541.71	0.265
542.16	0.267
542.62	0.263
543.07	0.265
543.52	0.264
543.98	0.266
544.43	0.262
544.88	0.261
545.34	0.264
545.79	0.263
546.24	0.262
546.69	0.263
547.15	0.260
547.60	0.260
548.05	0.262
548.51	0.258
548.96	0.259
549.41	0.258
549.86	0.257
550.32	0.258
550.77	0.259
551.22	0.258
551.68	0.254
552.13	0.255
552.58	0.255
553.03	0.257
553.49	0.257
553.94	0.256
554.39	0.254
554.84	0.256
555.30	0.255
555.75	0.257
556.20	0.253
556.65	0.253
557.11	0.253
557.56	0.251
558.01	0.253
558.46	0.254
558.92	0.251
559.37	0.252
559.82	0.251
560.27	0.253
560.72	0.251
561.18	0.249
561.63	0.250
562.08	0.247
562.53	0.249
562.99	0.250
563.44	0.248
563.89	0.248
564.34	0.247
564.79	0.251
565.25	0.246
565.70	0.248
566.15	0.246
566.60	0.246
567.05	0.249
567.50	0.247
567.96	0.244
568.41	0.245
568.86	0.244
569.31	0.243
569.76	0.243
570.21	0.244
570.67	0.244
571.12	0.242
571.57	0.243
572.02	0.241
572.47	0.242
572.92	0.240
573.37	0.240
573.83	0.239
574.28	0.240
574.73	0.240
575.18	0.241
575.63	0.241
576.08	0.238
576.53	0.240
576.98	0.239
577.44	0.236
577.89	0.238
578.34	0.237
578.79	0.238
579.24	0.238
579.69	0.239
580.14	0.236
580.59	0.236
581.04	0.235
581.49	0.236
581.95	0.235
582.40	0.236
582.85	0.235
583.30	0.234
583.75	0.233
584.20	0.234
584.65	0.235
585.10	0.233
585.55	0.233
586.00	0.236
586.45	0.234
586.90	0.235
587.35	0.233
587.80	0.233
588.25	0.234
588.71	0.235
589.16	0.232
589.61	0.233
590.06	0.233
590.51	0.235
590.96	0.232
591.41	0.231
591.86	0.233
592.31	0.233
592.76	0.231
593.21	0.233
593.66	0.235
594.11	0.232
594.56	0.232
595.01	0.231
595.46	0.231
595.91	0.231
596.36	0.231
596.81	0.232
597.26	0.234
597.71	0.232
598.16	0.231
598.61	0.231
599.06	0.231
599.51	0.233
599.96	0.233
600.41	0.230
600.86	0.229
601.31	0.232
601.76	0.230
602.21	0.230
602.65	0.232
603.10	0.231
603.55	0.229
604.00	0.231
604.45	0.231
604.90	0.231
605.35	0.227
605.80	0.230
606.25	0.230
606.70	0.230
607.15	0.229
607.60	0.228
608.05	0.226
608.50	0.228
608.95	0.226
609.39	0.229
609.84	0.229
610.29	0.227
610.74	0.227
611.19	0.227
611.64	0.226
612.09	0.227
612.54	0.227
612.99	0.227
613.44	0.225
613.88	0.227
614.33	0.226
614.78	0.225
615.23	0.224
615.68	0.225
616.13	0.225
616.58	0.225
617.03	0.224
617.47	0.226
617.92	0.225
618.37	0.223
618.82	0.223
619.27	0.223
619.72	0.223
620.17	0.222
620.61	0.222
621.06	0.222
621.51	0.221
621.96	0.220
622.41	0.222
622.86	0.221
623.30	0.220
623.75	0.223
624.20	0.220
624.65	0.221
625.10	0.220
625.54	0.220
625.99	0.221
626.44	0.221
626.89	0.221
627.34	0.221
627.78	0.220
628.23	0.219
628.68	0.220
629.13	0.218
629.58	0.219
630.02	0.220
630.47	0.218
630.92	0.219
631.37	0.219
631.81	0.220
632.26	0.220
632.71	0.218
633.16	0.219
633.61	0.220
634.05	0.219
634.50	0.219
634.95	0.219
635.40	0.220
635.84	0.220
636.29	0.219
636.74	0.220
637.18	0.219
637.63	0.219
638.08	0.217
638.53	0.218
638.97	0.218
639.42	0.218
639.87	0.220
640.32	0.218
640.76	0.220
641.21	0.219
641.66	0.220
642.10	0.218
642.55	0.217
643.00	0.219
643.44	0.219
643.89	0.220
644.34	0.219
644.79	0.218
645.23	0.218
645.68	0.218
646.13	0.219
646.57	0.218
647.02	0.217
647.47	0.221
647.91	0.219
648.36	0.218
648.81	0.220
649.25	0.217
649.70	0.216
650.15	0.217
650.59	0.217
651.04	0.217
651.48	0.221
651.93	0.218
652.38	0.217
652.82	0.217
653.27	0.219
653.72	0.219
654.16	0.218
654.61	0.218
655.06	0.216
655.50	0.215
655.95	0.215
656.39	0.209
656.84	0.212
657.29	0.219
657.73	0.217
658.18	0.216
658.62	0.216
659.07	0.216
659.52	0.216
659.96	0.216
660.41	0.216
660.85	0.213
661.30	0.214
661.74	0.215
662.19	0.213
662.64	0.213
663.08	0.212
663.53	0.212
663.97	0.210
664.42	0.212
664.86	0.213
665.31	0.213
665.75	0.208
666.20	0.212
666.65	0.210
667.09	0.209
667.54	0.210
667.98	0.208
668.43	0.208
668.87	0.207
669.32	0.206
669.76	0.204
670.21	0.205
670.65	0.202
671.10	0.204
671.54	0.202
671.99	0.201
672.43	0.201
672.88	0.201
673.32	0.201
673.77	0.199
674.21	0.199
674.66	0.199
675.10	0.196
675.55	0.193
675.99	0.197
676.44	0.194
676.88	0.192
677.33	0.191
677.77	0.191
678.22	0.189
678.66	0.189
679.11	0.188
679.55	0.189
679.99	0.188
680.44	0.188
680.88	0.185
681.33	0.184
681.77	0.181
682.22	0.184
682.66	0.182
683.11	0.181
683.55	0.181
683.99	0.181
684.44	0.176
684.88	0.177
685.33	0.177
685.77	0.175
686.21	0.175
686.66	0.175
687.10	0.174
687.55	0.172
687.99	0.173
688.44	0.174
688.88	0.171
689.32	0.171
689.77	0.168
690.21	0.170
690.65	0.170
691.10	0.168
691.54	0.166
691.99	0.165
692.43	0.166
692.87	0.166
693.32	0.166
693.76	0.165
694.20	0.167
694.65	0.164
695.09	0.164
695.53	0.165
695.98	0.163
696.42	0.162
696.86	0.164
697.31	0.161
697.75	0.162
698.19	0.161
698.64	0.161
699.08	0.158
699.52	0.160
699.97	0.160
700.41	0.162
700.85	0.160
701.30	0.156
701.74	0.159
702.18	0.159
702.63	0.158
703.07	0.159
703.51	0.158
703.96	0.157
704.40	0.158
704.84	0.160
705.28	0.159
705.73	0.156
706.17	0.157
706.61	0.155
707.06	0.158
707.50	0.154
707.94	0.154
708.38	0.154
708.83	0.157
709.27	0.155
709.71	0.154
710.15	0.157
710.60	0.154
711.04	0.155
711.48	0.155
711.92	0.155
712.37	0.153
712.81	0.155
713.25	0.157
713.69	0.154
714.13	0.155
714.58	0.153
715.02	0.153
715.46	0.152
715.90	0.151
716.35	0.150
716.79	0.152
717.23	0.153
717.67	0.152
718.11	0.154
718.56	0.151
719.00	0.155
719.44	0.153
719.88	0.152
720.32	0.152
720.76	0.152
721.21	0.152
721.65	0.150
722.09	0.152
722.53	0.152
722.97	0.152
723.41	0.150
723.86	0.155
724.30	0.149
724.74	0.152
725.18	0.153
725.62	0.149
726.06	0.151
726.50	0.149
726.95	0.150
727.39	0.153
727.83	0.148
728.27	0.151
728.71	0.151
729.15	0.151
729.59	0.151
730.03	0.148
730.48	0.152
730.92	0.150
731.36	0.151
731.80	0.151
732.24	0.151
732.68	0.149
733.12	0.149
733.56	0.150
734.00	0.151
734.44	0.148
734.89	0.150
735.33	0.150
735.77	0.153
736.21	0.148
736.65	0.148
737.09	0.152
737.53	0.152
737.97	0.152
738.41	0.151
738.85	0.154
739.29	0.152
739.73	0.150
740.17	0.150
740.61	0.150
741.05	0.150
741.49	0.151
741.93	0.149
742.37	0.146
742.81	0.149
743.26	0.148
743.70	0.146
744.14	0.148
744.58	0.148
745.02	0.150
745.46	0.150
745.90	0.147
746.34	0.151
746.78	0.147
747.22	0.150
747.66	0.151
748.10	0.150
748.54	0.149
748.98	0.148
749.42	0.147
749.86	0.149
750.29	0.146
750.73	0.145
751.17	0.144
751.61	0.145
752.05	0.147
752.49	0.145
752.93	0.145
753.37	0.145
753.81	0.144
754.25	0.145
754.69	0.144
755.13	0.142
755.57	0.144
756.01	0.146
756.45	0.145
756.89	0.144
757.33	0.146
757.77	0.144
758.21	0.143
758.64	0.143
759.08	0.141
759.52	0.146
759.96	0.144
760.40	0.141
760.84	0.141
761.28	0.144
761.72	0.144
762.16	0.145
762.60	0.141
763.03	0.142
763.47	0.140
763.91	0.142
764.35	0.141
764.79	0.141
765.23	0.139
765.67	0.140
766.11	0.138
766.54	0.138
766.98	0.142
767.42	0.143
767.86	0.141
768.30	0.144
768.74	0.142
769.17	0.142
769.61	0.141
770.05	0.140
770.49	0.140
770.93	0.141
771.37	0.139
771.80	0.137
772.24	0.139
772.68	0.139
773.12	0.138
773.56	0.137
774.00	0.138
774.43	0.137
774.87	0.136
775.31	0.139
775.75	0.136
776.19	0.138
776.62	0.137
777.06	0.139
777.50	0.136
777.94	0.139
778.37	0.135
778.81	0.137
779.25	0.139
779.69	0.140
780.13	0.139
780.56	0.136
781.00	0.138
781.44	0.138
781.88	0.137
782.31	0.136
782.75	0.136
783.19	0.139
783.63	0.135
784.06	0.134
784.50	0.138
784.94	0.137
785.37	0.137
785.81	0.138
786.25	0.138
786.69	0.133
787.12	0.133
787.56	0.134
788.00	0.136
788.43	0.139
788.87	0.135
789.31	0.135
789.75	0.137
790.18	0.132
790.62	0.134
791.06	0.131
791.49	0.134
791.93	0.132
792.37	0.136
792.80	0.133
793.24	0.133
793.68	0.133
794.11	0.132
794.55	0.138
794.99	0.136
795.42	0.135
795.86	0.137
796.30	0.132
796.73	0.133
797.17	0.134
797.61	0.128
798.04	0.133
798.48	0.134
798.91	0.132
799.35	0.133
799.79	0.137
800.22	0.131
800.66	0.129
801.10	0.132
801.53	0.129
801.97	0.136
802.40	0.136
802.84	0.133
803.28	0.131
803.71	0.133
804.15	0.134
804.58	0.130
805.02	0.133
805.46	0.134
805.89	0.132
806.33	0.133
806.76	0.127
807.20	0.133
807.63	0.131
808.07	0.135
808.51	0.130
808.94	0.129
809.38	0.129
809.81	0.129
810.25	0.133
810.68	0.131
811.12	0.131
811.55	0.132
811.99	0.129
812.42	0.133
812.86	0.128
813.29	0.128
813.73	0.126
814.17	0.127
814.60	0.130
815.04	0.129
815.47	0.128
815.91	0.128
816.34	0.129
816.78	0.130
817.21	0.129
817.65	0.132
818.08	0.128
818.52	0.132
818.95	0.131
819.39	0.129
819.82	0.127
820.25	0.129
820.69	0.128
821.12	0.131
821.56	0.128
821.99	0.126
822.43	0.126
822.86	0.134
823.30	0.132
823.73	0.128
824.17	0.132
824.60	0.124
825.04	0.128
825.47	0.126
825.90	0.126
826.34	0.129
826.77	0.131
827.21	0.129
827.64	0.132
828.08	0.133
828.51	0.130
828.94	0.128
829.38	0.128
829.81	0.130
830.25	0.130
830.68	0.134
831.11	0.128
831.55	0.131
831.98	0.130
832.42	0.131
832.85	0.135
833.28	0.135
833.72	0.134
834.15	0.134
834.58	0.134
835.02	0.136
835.45	0.135
835.88	0.132
836.32	0.134
836.75	0.132
837.19	0.131
837.62	0.138
838.05	0.132
838.49	0.137
838.92	0.134
839.35	0.133
839.79	0.136
840.22	0.133
840.65	0.132
841.09	0.134
841.52	0.136
841.95	0.134
842.39	0.137
842.82	0.131
843.25	0.136
843.68	0.132
844.12	0.134
844.55	0.127
844.98	0.132
845.42	0.130
845.85	0.129
846.28	0.127
846.71	0.127
847.15	0.134
847.58	0.133
848.01	0.137
848.45	0.135
848.88	0.133
849.31	0.132
849.74	0.133
850.18	0.133
850.61	0.131
851.04	0.133
851.47	0.136
851.91	0.140
852.34	0.136
852.77	0.135
853.20	0.133
853.64	0.135
854.07	0.135
854.50	0.134
854.93	0.135
855.36	0.131
855.80	0.132
856.23	0.133
856.66	0.137
857.09	0.133
857.52	0.135
857.96	0.131
858.39	0.134
858.82	0.131
859.25	0.136
859.68	0.135
860.12	0.132
860.55	0.130
860.98	0.135
861.41	0.132
861.84	0.135
862.27	0.132
862.71	0.134
863.14	0.137
863.57	0.135
864.00	0.130
864.43	0.136
864.86	0.132
865.30	0.137
865.73	0.136
866.16	0.133
866.59	0.135
867.02	0.137
867.45	0.136
867.88	0.136
868.31	0.135
868.75	0.137
869.18	0.140
869.61	0.137
870.04	0.130
870.47	0.134
870.90	0.137
871.33	0.134
871.76	0.136
872.19	0.143
872.62	0.133
873.06	0.128
873.49	0.136
873.92	0.134
874.35	0.134
874.78	0.136
875.21	0.134
875.64	0.131
876.07	0.141
876.50	0.135
876.93	0.139
877.36	0.132
877.79	0.136
878.22	0.134
878.65	0.137
879.08	0.136
879.51	0.138
879.94	0.135
880.37	0.133
880.80	0.145
881.23	0.132
881.67	0.141
882.10	0.136
882.53	0.139
882.96	0.141
883.39	0.137
883.82	0.138
884.25	0.139
884.68	0.137
885.11	0.143
885.54	0.144
885.97	0.137
886.39	0.138
886.82	0.136
887.25	0.136
887.68	0.139
888.11	0.137
888.54	0.135
888.97	0.136
889.40	0.141
889.83	0.137
890.26	0.139
890.69	0.137
891.12	0.139
891.55	0.140
891.98	0.137
892.41	0.140
892.84	0.140
893.27	0.140
893.70	0.141
894.13	0.142
894.56	0.138
894.98	0.141
895.41	0.138
895.84	0.136
896.27	0.138
896.70	0.137
897.13	0.140
897.56	0.136
897.99	0.138
898.42	0.136
898.85	0.138
899.27	0.139
899.70	0.143
900.13	0.138
900.56	0.139
900.99	0.139
901.42	0.142
901.85	0.141
902.28	0.140
902.70	0.137
903.13	0.139
903.56	0.140
903.99	0.139
904.42	0.138
904.85	0.138
905.27	0.138
905.70	0.141
906.13	0.142
906.56	0.137
906.99	0.141
907.42	0.139
907.84	0.138
908.27	0.140
908.70	0.143
909.13	0.140
909.56	0.136
909.98	0.139
910.41	0.138
910.84	0.143
911.27	0.144
911.70	0.138
912.12	0.137
912.55	0.142
912.98	0.141
913.41	0.137
913.84	0.140
914.26	0.135
914.69	0.140
915.12	0.139
915.55	0.138
915.97	0.137
916.40	0.139
916.83	0.137
917.26	0.140
917.68	0.141
918.11	0.139
918.54	0.135
918.97	0.141
919.39	0.143
919.82	0.139
920.25	0.137
920.67	0.139
921.10	0.143
921.53	0.144
921.96	0.143
922.38	0.141
922.81	0.139
923.24	0.144
923.66	0.136
924.09	0.143
924.52	0.140
924.94	0.143
925.37	0.145
925.80	0.145
926.22	0.142
926.65	0.143
927.08	0.147
927.50	0.147
927.93	0.148
928.36	0.144
928.78	0.148
929.21	0.145
929.64	0.151
930.06	0.155
930.49	0.151
930.92	0.152
931.34	0.152
931.77	0.155
932.20	0.155
932.62	0.152
933.05	0.154
933.47	0.157
933.90	0.157
934.33	0.153
934.75	0.158
935.18	0.160
935.61	0.161
936.03	0.168
936.46	0.163
936.88	0.164
937.31	0.167
937.73	0.166
938.16	0.164
938.59	0.173
939.01	0.174
939.44	0.176
939.86	0.180
940.29	0.178
940.71	0.182
941.14	0.182
941.57	0.182
941.99	0.187
942.42	0.190
942.84	0.197
943.27	0.199
943.69	0.195
944.12	0.194
944.54	0.205
944.97	0.204
945.39	0.190
945.82	0.204
946.24	0.203
946.67	0.202
947.09	0.208
947.52	0.207
947.94	0.209
948.37	0.210
948.79	0.210
949.22	0.222
949.64	0.212
950.07	0.224
950.49	0.221
950.92	0.224
951.34	0.222
951.77	0.224
952.19	0.221
952.62	0.235
953.04	0.233
953.47	0.245
953.89	0.248
954.32	0.243
954.74	0.244
955.17	0.243
955.59	0.258
956.01	0.253
956.44	0.260
956.86	0.266
957.29	0.264
957.71	0.268
958.14	0.262
958.56	0.269
958.98	0.270
959.41	0.273
959.83	0.275
960.26	0.279
960.68	0.286
961.10	0.284
961.53	0.283
961.95	0.287
962.38	0.284
962.80	0.282
963.22	0.285
963.65	0.286
964.07	0.286
964.50	0.291
964.92	0.291
965.34	0.290
965.77	0.289
966.19	0.291
966.61	0.294
967.04	0.297
967.46	0.297
967.88	0.299
968.31	0.293
968.73	0.292
969.15	0.290
969.58	0.293
970.00	0.294
970.42	0.297
970.85	0.289
971.27	0.294
971.69	0.295
972.12	0.298
972.54	0.298
972.96	0.298
973.39	0.298
973.81	0.299
974.23	0.302
974.65	0.298
975.08	0.298
975.50	0.301
975.92	0.305
976.35	0.299
976.77	0.292
977.19	0.300
977.61	0.301
978.04	0.298
978.46	0.300
978.88	0.296
979.30	0.295
979.73	0.296
980.15	0.299
980.57	0.305
980.99	0.299
981.42	0.298
981.84	0.303
982.26	0.297
982.68	0.299
983.11	0.301
983.53	0.294
983.95	0.301
984.37	0.298
984.79	0.297
985.22	0.297
985.64	0.302
986.06	0.293
986.48	0.293
986.90	0.297
987.33	0.289
987.75	0.288
988.17	0.292
988.59	0.294
989.01	0.286
989.43	0.289
989.86	0.288
990.28	0.291
990.70	0.285
991.12	0.290
991.54	0.292
991.96	0.285
992.39	0.289
992.81	0.279
993.23	0.285
993.65	0.281
994.07	0.284
994.49	0.282
994.91	0.281
995.34	0.270
995.76	0.273
996.18	0.277
996.60	0.279
997.02	0.276
997.44	0.267
997.86	0.277
998.28	0.278
998.70	0.275
999.12	0.275
999.55	0.273
999.97	0.273
1000.39	0.270
1000.81	0.273
1001.23	0.271
1001.65	0.267
1002.07	0.267
1002.49	0.276
1002.91	0.265
1003.33	0.264
1003.75	0.263
1004.17	0.256
1004.59	0.259
1005.01	0.267
1005.43	0.263
1005.85	0.255
1006.28	0.261
1006.70	0.266
1007.12	0.265
1007.54	0.252
1007.96	0.257
1008.38	0.257
1008.80	0.252
1009.22	0.256
1009.64	0.257
1010.06	0.255
1010.48	0.252
1010.90	0.257
1011.32	0.246
1011.74	0.245
1012.16	0.247
1012.58	0.244
1013.00	0.243
1013.42	0.234
1013.84	0.246
1014.26	0.233
1014.67	0.245
1015.09	0.244
1015.51	0.245
1015.93	0.247
1016.35	0.244
1016.77	0.242
1017.19	0.225
1017.61	0.226
1018.03	0.240
1018.45	0.242
1018.87	0.251
1019.29	0.240
1019.71	0.236
1020.13	0.243
1020.55	0.236
1020.97	0.226
1021.38	0.224
1021.80	0.228
1022.22	0.230
1022.64	0.220
1023.06	0.217
1023.48	0.221
1023.90	0.220
1024.32	0.217
1024.74	0.219
1025.15	0.215
1025.57	0.208
1025.99	0.218
1026.41	0.224
1026.83	0.223
1027.25	0.213
1027.67	0.223
1028.08	0.217
1028.50	0.223
1028.92	0.209
1029.34	0.226
1029.76	0.225
1030.18	0.208
1030.60	0.225
1031.01	0.222
1031.43	0.218
1031.85	0.213
1032.27	0.209
1032.69	0.206
1033.10	0.214
1033.52	0.218
1033.94	0.208
1034.36	0.197
1034.78	0.211
1035.19	0.210
1035.61	0.202
1036.03	0.212
1036.45	0.194
1036.87	0.206
1037.28	0.206
1037.70	0.207
1038.12	0.203
1038.54	0.197
1038.95	0.191
1039.37	0.178
1039.79	0.189
1040.21	0.199
1040.62	0.204
1041.04	0.201
1041.46	0.186
1041.88	0.196
1042.29	0.205
1042.71	0.206
1043.13	0.205
1043.55	0.181
1043.96	0.198
1044.38	0.194
1044.80	0.205
1045.21	0.179
1045.63	0.183
1046.05	0.177
1046.47	0.193
1046.88	0.176
1047.30	0.193
1047.72	0.178
1048.13	0.177
1048.55	0.191
1048.97	0.185
1049.38	0.203
1049.80	0.187
1050.22	0.208
1050.63	0.173
1051.05	0.197
1051.47	0.188
1051.88	0.190
1052.30	0.196
1052.72	0.194
1053.13	0.188
1053.55	0.208
1053.97	0.194
1054.38	0.197
1054.80	0.217
1055.21	0.202
1055.63	0.200
1056.05	0.196
1056.46	0.201
1056.88	0.196
1057.29	0.198
1057.71	0.201
1058.13	0.207
1058.54	0.233
1058.96	0.172
1059.37	0.217
1059.79	0.224
1060.21	0.201
1060.62	0.182
1061.04	0.204
1061.45	0.212
1061.87	0.179
1062.28	0.218
1062.70	0.251
1063.12	0.199
1063.53	0.186
1063.95	0.259
1064.36	0.227
1064.78	0.239
1065.19	0.271
1065.61	0.259
1066.02	0.251
1066.44	0.215
1066.85	0.257
1067.27	0.290
1067.68	0.263
1068.10	0.222
1068.51	0.272
1068.93	0.337
1069.35	0.420
1069.76	0.362
1070.17	0.299
1070.59	0.425
1071.00	0.336
1071.42	0.312
1071.83	0.423
1072.25	0.354
1072.66	0.302
1073.08	0.508
1073.49	0.511
1073.91	0.353
1074.32	0.461
1074.74	0.440
1075.15	0.399
1075.57	0.284
1075.98	0.513
1076.40	0.322
1076.81	0.495
1077.22	0.465
1077.64	0.848
1078.05	0.591
1078.47	0.533
1078.88	0.611
1079.30	0.479
1079.71	1.502
1080.12	-0.000
1080.54	-0.000
1080.95	1.003
1081.37	1.833
1081.78	0.597
1082.19	0.829
1082.61	1.388
1083.02	1.595
1083.44	-0.000
1083.85	1.473
1084.26	-0.000
1084.68	-0.000
1085.09	0.566
1085.50	-0.000
1085.92	-0.000
1086.33	-0.000
1086.74	-0.000
1087.16	-0.000
1087.57	-0.000
1087.98	1.665
1088.40	-0.000
1088.81	0.893
1089.22	-0.000
1089.64	-0.000
1090.05	-0.000
1090.46	-0.000
1090.88	-0.000
1091.29	-0.000
1091.70	-0.000
1092.12	-0.000
1092.53	-0.000
1092.94	-0.000
1093.36	-0.000
1093.77	-0.000
1094.18	-0.000
1094.59	-0.000
1095.01	-0.000
1095.42	-0.000
1095.83	-0.000
1096.25	-0.000
1096.66	-0.000
1097.07	-0.000
1097.48	-0.000
1097.90	-0.000
1098.31	-0.000
1098.72	-0.000
1099.13	-0.000
>>>>>End Processed Spectral Data<<<<<
