SpectraSuite Data File
++++++++++++++++++++++++++++++++++++
Date: Sun Apr 24 16:43:01 CEST 2016
User: spectrasuite
Dark Spectrum Present: Yes
Reference Spectrum Present: Yes
Number of Sampled Component Spectra: 1
Spectrometers: HR+C0708
Integration Time (usec): 1000 (HR+C0708)
Spectra Averaged: 10 (HR+C0708)
Boxcar Smoothing: 0 (HR+C0708)
Correct for Electrical Dark: No (HR+C0708)
Strobe/Lamp Enabled: No (HR+C0708)
Correct for Detector Non-linearity: No (HR+C0708)
Correct for Stray Light: No (HR+C0708)
Number of Pixels in Processed Spectrum: 2048
>>>>>Begin Processed Spectral Data<<<<<
188.76	-0.000
189.23	-0.000
189.70	-0.000
190.17	-0.000
190.64	-0.000
191.12	-0.000
191.59	-0.000
192.06	-0.000
192.53	-0.000
193.01	-0.000
193.48	-0.000
193.95	-0.000
194.42	-0.000
194.90	-0.000
195.37	-0.000
195.84	-0.000
196.31	-0.000
196.78	-0.000
197.26	-0.000
197.73	-0.000
198.20	-0.000
198.67	-0.000
199.14	-0.000
199.62	-0.000
200.09	-0.000
200.56	-0.000
201.03	-0.000
201.50	2.674
201.97	1.406
202.45	-0.000
202.92	1.047
203.39	-0.000
203.86	-0.000
204.33	-0.000
204.80	-0.000
205.28	1.038
205.75	-0.000
206.22	1.609
206.69	-0.000
207.16	2.045
207.63	1.430
208.11	1.094
208.58	1.879
209.05	-0.000
209.52	-0.000
209.99	-0.000
210.46	1.134
210.93	-0.000
211.41	-0.000
211.88	-0.000
212.35	-0.000
212.82	-0.000
213.29	-0.000
213.76	-0.000
214.23	-0.000
214.70	-0.000
215.18	-0.000
215.65	0.804
216.12	-0.000
216.59	-0.000
217.06	-0.000
217.53	-0.000
218.00	1.104
218.47	1.556
218.94	-0.000
219.41	-0.000
219.89	-0.000
220.36	-0.000
220.83	1.146
221.30	-0.000
221.77	-0.000
222.24	-0.000
222.71	-0.000
223.18	-0.000
223.65	2.930
224.12	-0.000
224.59	-0.000
225.06	1.990
225.54	2.002
226.01	1.299
226.48	-0.000
226.95	-0.000
227.42	1.696
227.89	-0.000
228.36	1.984
228.83	-0.000
229.30	2.024
229.77	-0.000
230.24	-0.000
230.71	-0.000
231.18	-0.000
231.65	-0.000
232.12	-0.000
232.59	2.387
233.06	-0.000
233.53	3.908
234.00	2.133
234.47	-0.000
234.94	-0.000
235.41	-0.000
235.88	-0.000
236.35	-0.000
236.82	2.852
237.29	2.309
237.76	2.307
238.23	-0.000
238.70	-0.000
239.17	2.477
239.64	3.911
240.11	-0.000
240.58	2.717
241.05	3.393
241.52	2.693
241.99	-0.000
242.46	2.624
242.93	2.849
243.40	3.240
243.87	2.901
244.34	2.612
244.81	-0.000
245.28	-0.000
245.75	3.955
246.22	-0.000
246.69	3.531
247.16	-0.000
247.63	2.795
248.10	2.779
248.57	-0.000
249.04	-0.000
249.51	3.015
249.98	-0.000
250.45	-0.000
250.92	3.366
251.39	2.824
251.85	3.671
252.32	-0.000
252.79	-0.000
253.26	3.286
253.73	-0.000
254.20	3.277
254.67	2.977
255.14	-0.000
255.61	3.189
256.08	3.373
256.55	-0.000
257.02	2.817
257.49	3.271
257.95	2.839
258.42	3.054
258.89	4.142
259.36	3.404
259.83	2.926
260.30	2.965
260.77	-0.000
261.24	2.877
261.71	3.157
262.17	2.948
262.64	2.818
263.11	2.935
263.58	3.411
264.05	3.196
264.52	2.654
264.99	2.595
265.46	2.750
265.92	2.879
266.39	2.642
266.86	2.787
267.33	2.648
267.80	2.528
268.27	2.668
268.74	2.517
269.20	2.796
269.67	2.545
270.14	2.382
270.61	2.578
271.08	2.538
271.55	2.404
272.01	2.454
272.48	2.412
272.95	2.444
273.42	2.358
273.89	2.399
274.36	2.385
274.82	2.315
275.29	2.260
275.76	2.345
276.23	2.276
276.70	2.279
277.16	2.196
277.63	2.190
278.10	2.195
278.57	2.156
279.04	2.195
279.50	2.203
279.97	2.195
280.44	2.103
280.91	2.128
281.38	2.071
281.84	2.076
282.31	2.136
282.78	2.169
283.25	2.122
283.72	2.029
284.18	2.041
284.65	2.055
285.12	2.024
285.59	1.998
286.05	2.026
286.52	1.979
286.99	1.978
287.46	2.000
287.92	1.976
288.39	1.931
288.86	1.933
289.33	1.941
289.79	1.909
290.26	1.911
290.73	1.888
291.20	1.921
291.66	1.910
292.13	1.855
292.60	1.862
293.07	1.851
293.53	1.839
294.00	1.838
294.47	1.842
294.93	1.815
295.40	1.835
295.87	1.831
296.34	1.815
296.80	1.781
297.27	1.789
297.74	1.803
298.20	1.790
298.67	1.751
299.14	1.806
299.60	1.764
300.07	1.741
300.54	1.750
301.01	1.739
301.47	1.725
301.94	1.704
302.41	1.731
302.87	1.696
303.34	1.719
303.81	1.675
304.27	1.693
304.74	1.682
305.21	1.668
305.67	1.641
306.14	1.657
306.61	1.653
307.07	1.657
307.54	1.626
308.01	1.631
308.47	1.640
308.94	1.614
309.40	1.616
309.87	1.596
310.34	1.593
310.80	1.609
311.27	1.603
311.74	1.592
312.20	1.577
312.67	1.558
313.13	1.558
313.60	1.582
314.07	1.556
314.53	1.550
315.00	1.542
315.47	1.539
315.93	1.527
316.40	1.511
316.86	1.520
317.33	1.510
317.80	1.492
318.26	1.503
318.73	1.507
319.19	1.492
319.66	1.473
320.13	1.479
320.59	1.474
321.06	1.478
321.52	1.470
321.99	1.472
322.45	1.436
322.92	1.437
323.39	1.436
323.85	1.442
324.32	1.423
324.78	1.422
325.25	1.425
325.71	1.410
326.18	1.393
326.64	1.407
327.11	1.401
327.58	1.379
328.04	1.383
328.51	1.380
328.97	1.371
329.44	1.369
329.90	1.366
330.37	1.368
330.83	1.350
331.30	1.345
331.76	1.334
332.23	1.328
332.69	1.322
333.16	1.312
333.62	1.304
334.09	1.298
334.56	1.272
335.02	1.267
335.49	1.264
335.95	1.249
336.42	1.242
336.88	1.248
337.35	1.239
337.81	1.232
338.28	1.213
338.74	1.210
339.20	1.188
339.67	1.171
340.13	1.176
340.60	1.157
341.06	1.142
341.53	1.137
341.99	1.134
342.46	1.111
342.92	1.102
343.39	1.088
343.85	1.080
344.32	1.062
344.78	1.052
345.25	1.054
345.71	1.040
346.17	1.021
346.64	1.016
347.10	0.999
347.57	0.977
348.03	0.965
348.50	0.946
348.96	0.943
349.43	0.929
349.89	0.907
350.35	0.901
350.82	0.887
351.28	0.880
351.75	0.864
352.21	0.857
352.67	0.839
353.14	0.831
353.60	0.822
354.07	0.813
354.53	0.801
355.00	0.788
355.46	0.783
355.92	0.763
356.39	0.756
356.85	0.757
357.31	0.741
357.78	0.735
358.24	0.723
358.71	0.710
359.17	0.711
359.63	0.708
360.10	0.704
360.56	0.699
361.03	0.687
361.49	0.681
361.95	0.680
362.42	0.675
362.88	0.671
363.34	0.665
363.81	0.662
364.27	0.658
364.73	0.653
365.20	0.652
365.66	0.650
366.12	0.642
366.59	0.639
367.05	0.638
367.51	0.636
367.98	0.628
368.44	0.628
368.90	0.625
369.37	0.625
369.83	0.621
370.29	0.619
370.76	0.613
371.22	0.615
371.68	0.617
372.15	0.608
372.61	0.607
373.07	0.603
373.54	0.603
374.00	0.602
374.46	0.598
374.92	0.597
375.39	0.595
375.85	0.594
376.31	0.594
376.78	0.588
377.24	0.587
377.70	0.587
378.16	0.582
378.63	0.581
379.09	0.582
379.55	0.577
380.01	0.578
380.48	0.576
380.94	0.576
381.40	0.571
381.87	0.569
382.33	0.564
382.79	0.568
383.25	0.565
383.72	0.564
384.18	0.557
384.64	0.561
385.10	0.557
385.56	0.557
386.03	0.552
386.49	0.553
386.95	0.545
387.41	0.546
387.88	0.549
388.34	0.547
388.80	0.544
389.26	0.543
389.72	0.540
390.19	0.544
390.65	0.538
391.11	0.538
391.57	0.536
392.04	0.532
392.50	0.531
392.96	0.533
393.42	0.527
393.88	0.529
394.34	0.527
394.81	0.522
395.27	0.523
395.73	0.522
396.19	0.520
396.65	0.514
397.12	0.516
397.58	0.517
398.04	0.511
398.50	0.512
398.96	0.510
399.42	0.509
399.89	0.509
400.35	0.506
400.81	0.504
401.27	0.503
401.73	0.503
402.19	0.501
402.65	0.500
403.12	0.497
403.58	0.493
404.04	0.498
404.50	0.495
404.96	0.494
405.42	0.491
405.88	0.491
406.34	0.490
406.81	0.489
407.27	0.487
407.73	0.483
408.19	0.480
408.65	0.480
409.11	0.480
409.57	0.480
410.03	0.475
410.49	0.477
410.96	0.476
411.42	0.476
411.88	0.475
412.34	0.471
412.80	0.473
413.26	0.467
413.72	0.470
414.18	0.468
414.64	0.466
415.10	0.469
415.56	0.465
416.02	0.466
416.48	0.462
416.95	0.459
417.41	0.457
417.87	0.458
418.33	0.458
418.79	0.457
419.25	0.453
419.71	0.452
420.17	0.454
420.63	0.453
421.09	0.448
421.55	0.447
422.01	0.450
422.47	0.448
422.93	0.446
423.39	0.444
423.85	0.445
424.31	0.439
424.77	0.442
425.23	0.443
425.69	0.442
426.15	0.442
426.61	0.436
427.07	0.434
427.53	0.432
427.99	0.433
428.45	0.433
428.91	0.431
429.37	0.430
429.83	0.425
430.29	0.427
430.75	0.431
431.21	0.430
431.67	0.427
432.13	0.426
432.59	0.419
433.05	0.419
433.51	0.421
433.97	0.422
434.43	0.422
434.89	0.420
435.35	0.419
435.81	0.420
436.27	0.414
436.73	0.414
437.19	0.414
437.65	0.415
438.11	0.412
438.57	0.412
439.03	0.412
439.48	0.407
439.94	0.411
440.40	0.408
440.86	0.406
441.32	0.404
441.78	0.402
442.24	0.402
442.70	0.403
443.16	0.404
443.62	0.395
444.08	0.401
444.54	0.399
444.99	0.399
445.45	0.393
445.91	0.396
446.37	0.395
446.83	0.394
447.29	0.391
447.75	0.391
448.21	0.393
448.67	0.391
449.12	0.389
449.58	0.389
450.04	0.386
450.50	0.388
450.96	0.387
451.42	0.386
451.88	0.382
452.34	0.386
452.79	0.379
453.25	0.382
453.71	0.379
454.17	0.377
454.63	0.381
455.09	0.378
455.55	0.382
456.00	0.378
456.46	0.376
456.92	0.376
457.38	0.376
457.84	0.370
458.30	0.370
458.75	0.372
459.21	0.365
459.67	0.370
460.13	0.369
460.59	0.367
461.04	0.368
461.50	0.367
461.96	0.365
462.42	0.363
462.88	0.361
463.33	0.363
463.79	0.362
464.25	0.362
464.71	0.359
465.17	0.361
465.62	0.360
466.08	0.360
466.54	0.362
467.00	0.358
467.46	0.357
467.91	0.358
468.37	0.354
468.83	0.355
469.29	0.353
469.74	0.352
470.20	0.352
470.66	0.351
471.12	0.349
471.57	0.351
472.03	0.348
472.49	0.351
472.95	0.348
473.40	0.346
473.86	0.346
474.32	0.343
474.78	0.346
475.23	0.342
475.69	0.345
476.15	0.343
476.60	0.343
477.06	0.342
477.52	0.340
477.98	0.339
478.43	0.339
478.89	0.339
479.35	0.334
479.80	0.337
480.26	0.336
480.72	0.333
481.18	0.336
481.63	0.336
482.09	0.331
482.55	0.335
483.00	0.332
483.46	0.332
483.92	0.328
484.37	0.330
484.83	0.328
485.29	0.325
485.74	0.328
486.20	0.329
486.66	0.327
487.11	0.327
487.57	0.326
488.03	0.323
488.48	0.322
488.94	0.324
489.40	0.321
489.85	0.325
490.31	0.322
490.77	0.322
491.22	0.321
491.68	0.319
492.13	0.317
492.59	0.318
493.05	0.316
493.50	0.318
493.96	0.314
494.42	0.314
494.87	0.316
495.33	0.314
495.78	0.316
496.24	0.316
496.70	0.312
497.15	0.311
497.61	0.311
498.06	0.310
498.52	0.309
498.98	0.308
499.43	0.309
499.89	0.308
500.34	0.307
500.80	0.307
501.25	0.308
501.71	0.306
502.17	0.304
502.62	0.308
503.08	0.304
503.53	0.302
503.99	0.302
504.44	0.302
504.90	0.302
505.36	0.301
505.81	0.301
506.27	0.303
506.72	0.299
507.18	0.300
507.63	0.298
508.09	0.299
508.54	0.295
509.00	0.297
509.45	0.297
509.91	0.296
510.36	0.297
510.82	0.294
511.27	0.295
511.73	0.296
512.19	0.290
512.64	0.293
513.10	0.290
513.55	0.293
514.01	0.291
514.46	0.289
514.92	0.289
515.37	0.288
515.83	0.291
516.28	0.285
516.73	0.284
517.19	0.288
517.64	0.284
518.10	0.286
518.55	0.285
519.01	0.284
519.46	0.286
519.92	0.284
520.37	0.281
520.83	0.282
521.28	0.279
521.74	0.282
522.19	0.285
522.65	0.278
523.10	0.280
523.55	0.277
524.01	0.282
524.46	0.278
524.92	0.275
525.37	0.280
525.83	0.278
526.28	0.278
526.73	0.278
527.19	0.277
527.64	0.277
528.10	0.276
528.55	0.275
529.01	0.275
529.46	0.274
529.91	0.273
530.37	0.273
530.82	0.273
531.28	0.270
531.73	0.272
532.18	0.271
532.64	0.271
533.09	0.267
533.54	0.270
534.00	0.267
534.45	0.271
534.91	0.271
535.36	0.268
535.81	0.268
536.27	0.265
536.72	0.269
537.17	0.266
537.63	0.264
538.08	0.265
538.54	0.265
538.99	0.264
539.44	0.265
539.90	0.265
540.35	0.263
540.80	0.261
541.26	0.262
541.71	0.261
542.16	0.260
542.62	0.259
543.07	0.261
543.52	0.260
543.98	0.260
544.43	0.260
544.88	0.257
545.34	0.259
545.79	0.257
546.24	0.255
546.69	0.257
547.15	0.255
547.60	0.256
548.05	0.256
548.51	0.253
548.96	0.254
549.41	0.257
549.86	0.254
550.32	0.255
550.77	0.254
551.22	0.252
551.68	0.251
552.13	0.250
552.58	0.249
553.03	0.252
553.49	0.248
553.94	0.250
554.39	0.251
554.84	0.249
555.30	0.248
555.75	0.248
556.20	0.248
556.65	0.246
557.11	0.249
557.56	0.245
558.01	0.248
558.46	0.248
558.92	0.244
559.37	0.244
559.82	0.245
560.27	0.245
560.72	0.245
561.18	0.242
561.63	0.243
562.08	0.241
562.53	0.244
562.99	0.242
563.44	0.242
563.89	0.240
564.34	0.240
564.79	0.241
565.25	0.239
565.70	0.239
566.15	0.239
566.60	0.236
567.05	0.238
567.50	0.240
567.96	0.237
568.41	0.237
568.86	0.236
569.31	0.236
569.76	0.235
570.21	0.236
570.67	0.236
571.12	0.235
571.57	0.233
572.02	0.232
572.47	0.234
572.92	0.232
573.37	0.232
573.83	0.231
574.28	0.232
574.73	0.229
575.18	0.232
575.63	0.231
576.08	0.227
576.53	0.228
576.98	0.232
577.44	0.225
577.89	0.228
578.34	0.226
578.79	0.226
579.24	0.227
579.69	0.226
580.14	0.225
580.59	0.224
581.04	0.224
581.49	0.224
581.95	0.222
582.40	0.222
582.85	0.224
583.30	0.221
583.75	0.223
584.20	0.223
584.65	0.224
585.10	0.221
585.55	0.221
586.00	0.221
586.45	0.221
586.90	0.222
587.35	0.223
587.80	0.220
588.25	0.220
588.71	0.220
589.16	0.220
589.61	0.217
590.06	0.218
590.51	0.219
590.96	0.219
591.41	0.216
591.86	0.218
592.31	0.218
592.76	0.217
593.21	0.216
593.66	0.217
594.11	0.217
594.56	0.214
595.01	0.215
595.46	0.213
595.91	0.214
596.36	0.215
596.81	0.213
597.26	0.214
597.71	0.214
598.16	0.213
598.61	0.214
599.06	0.212
599.51	0.213
599.96	0.211
600.41	0.214
600.86	0.211
601.31	0.211
601.76	0.212
602.21	0.212
602.65	0.212
603.10	0.209
603.55	0.210
604.00	0.211
604.45	0.210
604.90	0.209
605.35	0.206
605.80	0.207
606.25	0.209
606.70	0.208
607.15	0.206
607.60	0.205
608.05	0.204
608.50	0.206
608.95	0.205
609.39	0.208
609.84	0.206
610.29	0.206
610.74	0.204
611.19	0.203
611.64	0.204
612.09	0.203
612.54	0.205
612.99	0.205
613.44	0.203
613.88	0.204
614.33	0.203
614.78	0.200
615.23	0.201
615.68	0.201
616.13	0.203
616.58	0.200
617.03	0.199
617.47	0.201
617.92	0.200
618.37	0.201
618.82	0.200
619.27	0.200
619.72	0.199
620.17	0.198
620.61	0.200
621.06	0.198
621.51	0.199
621.96	0.197
622.41	0.198
622.86	0.197
623.30	0.195
623.75	0.197
624.20	0.195
624.65	0.196
625.10	0.194
625.54	0.196
625.99	0.194
626.44	0.196
626.89	0.194
627.34	0.196
627.78	0.193
628.23	0.193
628.68	0.192
629.13	0.193
629.58	0.193
630.02	0.193
630.47	0.191
630.92	0.192
631.37	0.191
631.81	0.191
632.26	0.190
632.71	0.190
633.16	0.190
633.61	0.190
634.05	0.188
634.50	0.189
634.95	0.190
635.40	0.190
635.84	0.192
636.29	0.189
636.74	0.190
637.18	0.190
637.63	0.189
638.08	0.189
638.53	0.187
638.97	0.187
639.42	0.189
639.87	0.189
640.32	0.185
640.76	0.187
641.21	0.187
641.66	0.187
642.10	0.187
642.55	0.186
643.00	0.184
643.44	0.184
643.89	0.185
644.34	0.185
644.79	0.183
645.23	0.184
645.68	0.184
646.13	0.184
646.57	0.186
647.02	0.184
647.47	0.185
647.91	0.183
648.36	0.185
648.81	0.183
649.25	0.181
649.70	0.181
650.15	0.182
650.59	0.181
651.04	0.182
651.48	0.184
651.93	0.182
652.38	0.180
652.82	0.180
653.27	0.180
653.72	0.182
654.16	0.180
654.61	0.181
655.06	0.181
655.50	0.179
655.95	0.177
656.39	0.174
656.84	0.177
657.29	0.182
657.73	0.179
658.18	0.178
658.62	0.179
659.07	0.178
659.52	0.178
659.96	0.178
660.41	0.179
660.85	0.178
661.30	0.177
661.74	0.177
662.19	0.176
662.64	0.177
663.08	0.176
663.53	0.176
663.97	0.177
664.42	0.176
664.86	0.177
665.31	0.176
665.75	0.174
666.20	0.176
666.65	0.175
667.09	0.173
667.54	0.176
667.98	0.174
668.43	0.174
668.87	0.172
669.32	0.172
669.76	0.174
670.21	0.172
670.65	0.172
671.10	0.174
671.54	0.173
671.99	0.170
672.43	0.171
672.88	0.169
673.32	0.171
673.77	0.170
674.21	0.170
674.66	0.170
675.10	0.169
675.55	0.168
675.99	0.170
676.44	0.170
676.88	0.170
677.33	0.168
677.77	0.167
678.22	0.169
678.66	0.167
679.11	0.165
679.55	0.168
679.99	0.167
680.44	0.168
680.88	0.168
681.33	0.166
681.77	0.165
682.22	0.167
682.66	0.166
683.11	0.164
683.55	0.165
683.99	0.167
684.44	0.164
684.88	0.164
685.33	0.163
685.77	0.166
686.21	0.163
686.66	0.165
687.10	0.162
687.55	0.163
687.99	0.163
688.44	0.163
688.88	0.161
689.32	0.163
689.77	0.161
690.21	0.160
690.65	0.162
691.10	0.160
691.54	0.160
691.99	0.162
692.43	0.161
692.87	0.162
693.32	0.161
693.76	0.161
694.20	0.160
694.65	0.159
695.09	0.162
695.53	0.157
695.98	0.159
696.42	0.160
696.86	0.160
697.31	0.157
697.75	0.158
698.19	0.156
698.64	0.158
699.08	0.159
699.52	0.158
699.97	0.158
700.41	0.159
700.85	0.159
701.30	0.155
701.74	0.158
702.18	0.158
702.63	0.156
703.07	0.157
703.51	0.160
703.96	0.156
704.40	0.156
704.84	0.156
705.28	0.156
705.73	0.156
706.17	0.156
706.61	0.156
707.06	0.154
707.50	0.157
707.94	0.154
708.38	0.154
708.83	0.155
709.27	0.155
709.71	0.156
710.15	0.155
710.60	0.153
711.04	0.152
711.48	0.156
711.92	0.155
712.37	0.152
712.81	0.154
713.25	0.153
713.69	0.153
714.13	0.154
714.58	0.153
715.02	0.154
715.46	0.154
715.90	0.153
716.35	0.152
716.79	0.154
717.23	0.153
717.67	0.153
718.11	0.154
718.56	0.152
719.00	0.153
719.44	0.156
719.88	0.153
720.32	0.152
720.76	0.152
721.21	0.152
721.65	0.151
722.09	0.154
722.53	0.153
722.97	0.152
723.41	0.150
723.86	0.154
724.30	0.153
724.74	0.153
725.18	0.153
725.62	0.150
726.06	0.150
726.50	0.148
726.95	0.150
727.39	0.152
727.83	0.151
728.27	0.151
728.71	0.150
729.15	0.152
729.59	0.154
730.03	0.151
730.48	0.151
730.92	0.151
731.36	0.151
731.80	0.150
732.24	0.151
732.68	0.148
733.12	0.150
733.56	0.151
734.00	0.150
734.44	0.149
734.89	0.151
735.33	0.152
735.77	0.154
736.21	0.152
736.65	0.150
737.09	0.151
737.53	0.152
737.97	0.153
738.41	0.153
738.85	0.152
739.29	0.152
739.73	0.150
740.17	0.150
740.61	0.151
741.05	0.153
741.49	0.152
741.93	0.150
742.37	0.150
742.81	0.150
743.26	0.152
743.70	0.150
744.14	0.151
744.58	0.150
745.02	0.151
745.46	0.151
745.90	0.151
746.34	0.153
746.78	0.150
747.22	0.151
747.66	0.149
748.10	0.149
748.54	0.148
748.98	0.149
749.42	0.150
749.86	0.148
750.29	0.146
750.73	0.147
751.17	0.146
751.61	0.147
752.05	0.150
752.49	0.147
752.93	0.145
753.37	0.146
753.81	0.145
754.25	0.146
754.69	0.145
755.13	0.144
755.57	0.149
756.01	0.148
756.45	0.147
756.89	0.147
757.33	0.145
757.77	0.146
758.21	0.146
758.64	0.145
759.08	0.142
759.52	0.145
759.96	0.145
760.40	0.145
760.84	0.144
761.28	0.143
761.72	0.146
762.16	0.144
762.60	0.144
763.03	0.142
763.47	0.142
763.91	0.142
764.35	0.140
764.79	0.140
765.23	0.142
765.67	0.140
766.11	0.139
766.54	0.139
766.98	0.142
767.42	0.143
767.86	0.140
768.30	0.142
768.74	0.142
769.17	0.146
769.61	0.143
770.05	0.140
770.49	0.143
770.93	0.143
771.37	0.141
771.80	0.141
772.24	0.141
772.68	0.140
773.12	0.139
773.56	0.140
774.00	0.139
774.43	0.138
774.87	0.139
775.31	0.138
775.75	0.137
776.19	0.141
776.62	0.138
777.06	0.139
777.50	0.139
777.94	0.138
778.37	0.137
778.81	0.140
779.25	0.141
779.69	0.140
780.13	0.138
780.56	0.138
781.00	0.139
781.44	0.142
781.88	0.139
782.31	0.139
782.75	0.137
783.19	0.139
783.63	0.135
784.06	0.135
784.50	0.137
784.94	0.137
785.37	0.139
785.81	0.139
786.25	0.138
786.69	0.135
787.12	0.134
787.56	0.136
788.00	0.134
788.43	0.138
788.87	0.136
789.31	0.136
789.75	0.136
790.18	0.133
790.62	0.134
791.06	0.132
791.49	0.134
791.93	0.136
792.37	0.138
792.80	0.132
793.24	0.134
793.68	0.136
794.11	0.136
794.55	0.135
794.99	0.138
795.42	0.137
795.86	0.137
796.30	0.133
796.73	0.135
797.17	0.135
797.61	0.133
798.04	0.133
798.48	0.134
798.91	0.134
799.35	0.132
799.79	0.135
800.22	0.133
800.66	0.135
801.10	0.134
801.53	0.132
801.97	0.135
802.40	0.136
802.84	0.133
803.28	0.131
803.71	0.134
804.15	0.134
804.58	0.130
805.02	0.132
805.46	0.131
805.89	0.132
806.33	0.135
806.76	0.131
807.20	0.131
807.63	0.134
808.07	0.135
808.51	0.131
808.94	0.128
809.38	0.129
809.81	0.131
810.25	0.135
810.68	0.134
811.12	0.134
811.55	0.134
811.99	0.132
812.42	0.129
812.86	0.131
813.29	0.130
813.73	0.130
814.17	0.130
814.60	0.131
815.04	0.130
815.47	0.130
815.91	0.128
816.34	0.130
816.78	0.129
817.21	0.131
817.65	0.132
818.08	0.125
818.52	0.134
818.95	0.131
819.39	0.131
819.82	0.134
820.25	0.132
820.69	0.131
821.12	0.134
821.56	0.131
821.99	0.129
822.43	0.126
822.86	0.131
823.30	0.133
823.73	0.127
824.17	0.129
824.60	0.126
825.04	0.132
825.47	0.129
825.90	0.132
826.34	0.134
826.77	0.131
827.21	0.130
827.64	0.132
828.08	0.134
828.51	0.127
828.94	0.133
829.38	0.130
829.81	0.133
830.25	0.131
830.68	0.134
831.11	0.131
831.55	0.135
831.98	0.134
832.42	0.131
832.85	0.132
833.28	0.134
833.72	0.140
834.15	0.137
834.58	0.133
835.02	0.133
835.45	0.134
835.88	0.137
836.32	0.133
836.75	0.133
837.19	0.137
837.62	0.136
838.05	0.129
838.49	0.136
838.92	0.136
839.35	0.136
839.79	0.134
840.22	0.136
840.65	0.137
841.09	0.136
841.52	0.130
841.95	0.132
842.39	0.132
842.82	0.132
843.25	0.137
843.68	0.134
844.12	0.133
844.55	0.131
844.98	0.136
845.42	0.130
845.85	0.130
846.28	0.130
846.71	0.134
847.15	0.135
847.58	0.135
848.01	0.136
848.45	0.137
848.88	0.131
849.31	0.137
849.74	0.134
850.18	0.135
850.61	0.134
851.04	0.136
851.47	0.137
851.91	0.135
852.34	0.136
852.77	0.136
853.20	0.133
853.64	0.133
854.07	0.134
854.50	0.136
854.93	0.140
855.36	0.138
855.80	0.134
856.23	0.131
856.66	0.136
857.09	0.135
857.52	0.135
857.96	0.132
858.39	0.137
858.82	0.131
859.25	0.137
859.68	0.137
860.12	0.130
860.55	0.135
860.98	0.136
861.41	0.130
861.84	0.129
862.27	0.132
862.71	0.134
863.14	0.131
863.57	0.129
864.00	0.132
864.43	0.135
864.86	0.130
865.30	0.137
865.73	0.135
866.16	0.132
866.59	0.136
867.02	0.134
867.45	0.133
867.88	0.136
868.31	0.136
868.75	0.137
869.18	0.140
869.61	0.141
870.04	0.133
870.47	0.142
870.90	0.138
871.33	0.134
871.76	0.138
872.19	0.141
872.62	0.133
873.06	0.133
873.49	0.135
873.92	0.134
874.35	0.139
874.78	0.140
875.21	0.133
875.64	0.132
876.07	0.137
876.50	0.143
876.93	0.138
877.36	0.138
877.79	0.139
878.22	0.135
878.65	0.136
879.08	0.138
879.51	0.142
879.94	0.133
880.37	0.136
880.80	0.136
881.23	0.134
881.67	0.146
882.10	0.140
882.53	0.137
882.96	0.135
883.39	0.135
883.82	0.137
884.25	0.138
884.68	0.143
885.11	0.137
885.54	0.139
885.97	0.136
886.39	0.133
886.82	0.138
887.25	0.137
887.68	0.139
888.11	0.133
888.54	0.135
888.97	0.139
889.40	0.140
889.83	0.136
890.26	0.139
890.69	0.139
891.12	0.139
891.55	0.139
891.98	0.139
892.41	0.135
892.84	0.140
893.27	0.140
893.70	0.139
894.13	0.136
894.56	0.142
894.98	0.141
895.41	0.143
895.84	0.141
896.27	0.139
896.70	0.140
897.13	0.139
897.56	0.138
897.99	0.141
898.42	0.136
898.85	0.143
899.27	0.138
899.70	0.140
900.13	0.138
900.56	0.142
900.99	0.144
901.42	0.144
901.85	0.141
902.28	0.137
902.70	0.141
903.13	0.140
903.56	0.137
903.99	0.138
904.42	0.144
904.85	0.140
905.27	0.139
905.70	0.144
906.13	0.142
906.56	0.140
906.99	0.141
907.42	0.141
907.84	0.135
908.27	0.140
908.70	0.144
909.13	0.141
909.56	0.137
909.98	0.144
910.41	0.139
910.84	0.138
911.27	0.141
911.70	0.136
912.12	0.139
912.55	0.140
912.98	0.141
913.41	0.140
913.84	0.143
914.26	0.141
914.69	0.141
915.12	0.142
915.55	0.140
915.97	0.139
916.40	0.141
916.83	0.145
917.26	0.140
917.68	0.140
918.11	0.143
918.54	0.137
918.97	0.137
919.39	0.142
919.82	0.138
920.25	0.139
920.67	0.141
921.10	0.144
921.53	0.143
921.96	0.144
922.38	0.143
922.81	0.141
923.24	0.148
923.66	0.144
924.09	0.144
924.52	0.144
924.94	0.145
925.37	0.148
925.80	0.149
926.22	0.147
926.65	0.147
927.08	0.146
927.50	0.146
927.93	0.150
928.36	0.146
928.78	0.149
929.21	0.150
929.64	0.151
930.06	0.156
930.49	0.150
930.92	0.154
931.34	0.153
931.77	0.155
932.20	0.157
932.62	0.155
933.05	0.154
933.47	0.161
933.90	0.156
934.33	0.158
934.75	0.161
935.18	0.160
935.61	0.165
936.03	0.161
936.46	0.164
936.88	0.162
937.31	0.168
937.73	0.167
938.16	0.167
938.59	0.170
939.01	0.176
939.44	0.177
939.86	0.179
940.29	0.179
940.71	0.181
941.14	0.182
941.57	0.180
941.99	0.186
942.42	0.187
942.84	0.192
943.27	0.193
943.69	0.200
944.12	0.198
944.54	0.206
944.97	0.200
945.39	0.195
945.82	0.199
946.24	0.210
946.67	0.205
947.09	0.200
947.52	0.207
947.94	0.211
948.37	0.208
948.79	0.214
949.22	0.219
949.64	0.207
950.07	0.226
950.49	0.225
950.92	0.230
951.34	0.226
951.77	0.231
952.19	0.233
952.62	0.241
953.04	0.241
953.47	0.238
953.89	0.243
954.32	0.249
954.74	0.252
955.17	0.243
955.59	0.254
956.01	0.254
956.44	0.257
956.86	0.268
957.29	0.258
957.71	0.271
958.14	0.269
958.56	0.267
958.98	0.274
959.41	0.275
959.83	0.274
960.26	0.275
960.68	0.283
961.10	0.278
961.53	0.283
961.95	0.289
962.38	0.287
962.80	0.283
963.22	0.286
963.65	0.291
964.07	0.288
964.50	0.289
964.92	0.288
965.34	0.290
965.77	0.287
966.19	0.293
966.61	0.294
967.04	0.295
967.46	0.289
967.88	0.297
968.31	0.293
968.73	0.297
969.15	0.295
969.58	0.294
970.00	0.297
970.42	0.302
970.85	0.298
971.27	0.294
971.69	0.293
972.12	0.301
972.54	0.300
972.96	0.296
973.39	0.300
973.81	0.303
974.23	0.303
974.65	0.293
975.08	0.300
975.50	0.305
975.92	0.300
976.35	0.296
976.77	0.300
977.19	0.302
977.61	0.300
978.04	0.301
978.46	0.304
978.88	0.302
979.30	0.299
979.73	0.296
980.15	0.305
980.57	0.306
980.99	0.298
981.42	0.301
981.84	0.301
982.26	0.299
982.68	0.305
983.11	0.296
983.53	0.296
983.95	0.298
984.37	0.292
984.79	0.301
985.22	0.301
985.64	0.293
986.06	0.292
986.48	0.299
986.90	0.290
987.33	0.288
987.75	0.289
988.17	0.287
988.59	0.293
989.01	0.280
989.43	0.281
989.86	0.290
990.28	0.291
990.70	0.287
991.12	0.293
991.54	0.290
991.96	0.288
992.39	0.286
992.81	0.280
993.23	0.286
993.65	0.285
994.07	0.274
994.49	0.285
994.91	0.284
995.34	0.283
995.76	0.278
996.18	0.281
996.60	0.279
997.02	0.284
997.44	0.270
997.86	0.283
998.28	0.281
998.70	0.278
999.12	0.279
999.55	0.274
999.97	0.278
1000.39	0.274
1000.81	0.273
1001.23	0.275
1001.65	0.278
1002.07	0.274
1002.49	0.272
1002.91	0.266
1003.33	0.265
1003.75	0.270
1004.17	0.266
1004.59	0.263
1005.01	0.266
1005.43	0.268
1005.85	0.256
1006.28	0.257
1006.70	0.261
1007.12	0.259
1007.54	0.253
1007.96	0.261
1008.38	0.261
1008.80	0.255
1009.22	0.255
1009.64	0.250
1010.06	0.254
1010.48	0.250
1010.90	0.252
1011.32	0.245
1011.74	0.249
1012.16	0.246
1012.58	0.249
1013.00	0.247
1013.42	0.242
1013.84	0.248
1014.26	0.246
1014.67	0.249
1015.09	0.241
1015.51	0.239
1015.93	0.236
1016.35	0.240
1016.77	0.235
1017.19	0.235
1017.61	0.235
1018.03	0.238
1018.45	0.233
1018.87	0.249
1019.29	0.243
1019.71	0.233
1020.13	0.233
1020.55	0.232
1020.97	0.228
1021.38	0.225
1021.80	0.221
1022.22	0.220
1022.64	0.224
1023.06	0.220
1023.48	0.224
1023.90	0.220
1024.32	0.219
1024.74	0.225
1025.15	0.218
1025.57	0.216
1025.99	0.218
1026.41	0.215
1026.83	0.212
1027.25	0.212
1027.67	0.213
1028.08	0.215
1028.50	0.219
1028.92	0.208
1029.34	0.222
1029.76	0.212
1030.18	0.205
1030.60	0.217
1031.01	0.215
1031.43	0.216
1031.85	0.208
1032.27	0.217
1032.69	0.208
1033.10	0.215
1033.52	0.199
1033.94	0.203
1034.36	0.196
1034.78	0.199
1035.19	0.189
1035.61	0.194
1036.03	0.204
1036.45	0.195
1036.87	0.202
1037.28	0.188
1037.70	0.197
1038.12	0.181
1038.54	0.196
1038.95	0.193
1039.37	0.196
1039.79	0.197
1040.21	0.194
1040.62	0.209
1041.04	0.196
1041.46	0.189
1041.88	0.206
1042.29	0.195
1042.71	0.191
1043.13	0.211
1043.55	0.191
1043.96	0.199
1044.38	0.189
1044.80	0.197
1045.21	0.184
1045.63	0.187
1046.05	0.190
1046.47	0.204
1046.88	0.200
1047.30	0.197
1047.72	0.177
1048.13	0.189
1048.55	0.191
1048.97	0.212
1049.38	0.193
1049.80	0.198
1050.22	0.221
1050.63	0.176
1051.05	0.231
1051.47	0.195
1051.88	0.205
1052.30	0.213
1052.72	0.199
1053.13	0.187
1053.55	0.195
1053.97	0.191
1054.38	0.198
1054.80	0.201
1055.21	0.207
1055.63	0.174
1056.05	0.194
1056.46	0.238
1056.88	0.214
1057.29	0.199
1057.71	0.247
1058.13	0.199
1058.54	0.218
1058.96	0.185
1059.37	0.223
1059.79	0.231
1060.21	0.204
1060.62	0.185
1061.04	0.228
1061.45	0.229
1061.87	0.157
1062.28	0.201
1062.70	0.286
1063.12	0.199
1063.53	0.190
1063.95	0.249
1064.36	0.214
1064.78	0.255
1065.19	0.234
1065.61	0.201
1066.02	0.236
1066.44	0.266
1066.85	0.260
1067.27	0.289
1067.68	0.226
1068.10	0.217
1068.51	0.196
1068.93	0.253
1069.35	0.326
1069.76	0.232
1070.17	0.273
1070.59	0.297
1071.00	0.241
1071.42	0.234
1071.83	0.395
1072.25	0.306
1072.66	0.340
1073.08	0.444
1073.49	0.357
1073.91	0.353
1074.32	0.374
1074.74	0.305
1075.15	0.404
1075.57	0.154
1075.98	0.462
1076.40	0.304
1076.81	0.470
1077.22	0.343
1077.64	0.336
1078.05	0.475
1078.47	0.418
1078.88	0.496
1079.30	0.536
1079.71	0.757
1080.12	-0.000
1080.54	-0.000
1080.95	1.136
1081.37	1.054
1081.78	0.586
1082.19	-0.000
1082.61	-0.000
1083.02	1.090
1083.44	1.446
1083.85	-0.000
1084.26	0.847
1084.68	1.875
1085.09	0.777
1085.50	-0.000
1085.92	-0.000
1086.33	-0.000
1086.74	1.173
1087.16	-0.000
1087.57	-0.000
1087.98	-0.000
1088.40	2.051
1088.81	-0.000
1089.22	-0.000
1089.64	-0.000
1090.05	-0.000
1090.46	-0.000
1090.88	-0.000
1091.29	-0.000
1091.70	-0.000
1092.12	-0.000
1092.53	-0.000
1092.94	-0.000
1093.36	-0.000
1093.77	-0.000
1094.18	-0.000
1094.59	-0.000
1095.01	-0.000
1095.42	-0.000
1095.83	-0.000
1096.25	-0.000
1096.66	-0.000
1097.07	-0.000
1097.48	-0.000
1097.90	-0.000
1098.31	-0.000
1098.72	-0.000
1099.13	-0.000
>>>>>End Processed Spectral Data<<<<<
