SpectraSuite Data File
++++++++++++++++++++++++++++++++++++
Date: Sun Apr 24 17:21:11 CEST 2016
User: spectrasuite
Dark Spectrum Present: Yes
Reference Spectrum Present: Yes
Number of Sampled Component Spectra: 1
Spectrometers: HR+C0708
Integration Time (usec): 1000 (HR+C0708)
Spectra Averaged: 10 (HR+C0708)
Boxcar Smoothing: 0 (HR+C0708)
Correct for Electrical Dark: No (HR+C0708)
Strobe/Lamp Enabled: No (HR+C0708)
Correct for Detector Non-linearity: No (HR+C0708)
Correct for Stray Light: No (HR+C0708)
Number of Pixels in Processed Spectrum: 2048
>>>>>Begin Processed Spectral Data<<<<<
188.76	-0.000
189.23	-0.000
189.70	-0.000
190.17	-0.000
190.64	-0.000
191.12	-0.000
191.59	-0.000
192.06	-0.000
192.53	-0.000
193.01	-0.000
193.48	-0.000
193.95	-0.000
194.42	-0.000
194.90	-0.000
195.37	-0.000
195.84	-0.000
196.31	-0.000
196.78	-0.000
197.26	-0.000
197.73	-0.000
198.20	-0.000
198.67	-0.000
199.14	-0.000
199.62	-0.000
200.09	-0.000
200.56	-0.000
201.03	2.365
201.50	-0.000
201.97	1.457
202.45	1.283
202.92	1.109
203.39	1.395
203.86	-0.000
204.33	1.554
204.80	-0.000
205.28	-0.000
205.75	1.749
206.22	-0.000
206.69	-0.000
207.16	1.346
207.63	0.673
208.11	0.832
208.58	-0.000
209.05	1.022
209.52	-0.000
209.99	-0.000
210.46	-0.000
210.93	-0.000
211.41	1.490
211.88	1.400
212.35	1.249
212.82	-0.000
213.29	1.515
213.76	1.582
214.23	-0.000
214.70	-0.000
215.18	-0.000
215.65	1.238
216.12	1.710
216.59	-0.000
217.06	-0.000
217.53	1.207
218.00	1.931
218.47	1.531
218.94	-0.000
219.41	-0.000
219.89	-0.000
220.36	-0.000
220.83	1.505
221.30	-0.000
221.77	1.397
222.24	-0.000
222.71	1.314
223.18	-0.000
223.65	-0.000
224.12	-0.000
224.59	-0.000
225.06	-0.000
225.54	1.417
226.01	1.444
226.48	2.106
226.95	1.913
227.42	-0.000
227.89	-0.000
228.36	2.134
228.83	-0.000
229.30	-0.000
229.77	1.879
230.24	1.577
230.71	-0.000
231.18	1.900
231.65	-0.000
232.12	2.412
232.59	2.864
233.06	-0.000
233.53	2.130
234.00	2.299
234.47	-0.000
234.94	-0.000
235.41	-0.000
235.88	-0.000
236.35	2.946
236.82	2.561
237.29	2.320
237.76	-0.000
238.23	3.181
238.70	2.703
239.17	2.827
239.64	2.745
240.11	-0.000
240.58	3.362
241.05	-0.000
241.52	2.759
241.99	-0.000
242.46	3.134
242.93	-0.000
243.40	-0.000
243.87	2.876
244.34	3.044
244.81	2.858
245.28	-0.000
245.75	-0.000
246.22	-0.000
246.69	2.906
247.16	3.365
247.63	2.947
248.10	3.547
248.57	3.921
249.04	-0.000
249.51	-0.000
249.98	-0.000
250.45	-0.000
250.92	-0.000
251.39	4.017
251.85	-0.000
252.32	3.864
252.79	-0.000
253.26	-0.000
253.73	-0.000
254.20	2.702
254.67	2.721
255.14	2.883
255.61	-0.000
256.08	3.990
256.55	3.234
257.02	2.857
257.49	3.160
257.95	2.806
258.42	2.640
258.89	2.677
259.36	2.634
259.83	2.770
260.30	3.112
260.77	2.962
261.24	2.822
261.71	2.961
262.17	2.668
262.64	2.568
263.11	2.630
263.58	2.659
264.05	2.519
264.52	2.486
264.99	2.456
265.46	2.443
265.92	2.482
266.39	2.490
266.86	2.480
267.33	2.399
267.80	2.263
268.27	2.436
268.74	2.304
269.20	2.368
269.67	2.352
270.14	2.251
270.61	2.270
271.08	2.230
271.55	2.183
272.01	2.199
272.48	2.150
272.95	2.174
273.42	2.153
273.89	2.114
274.36	2.117
274.82	2.122
275.29	2.078
275.76	2.066
276.23	2.035
276.70	2.068
277.16	2.013
277.63	2.026
278.10	1.999
278.57	1.970
279.04	1.986
279.50	1.973
279.97	2.010
280.44	1.945
280.91	1.948
281.38	1.904
281.84	1.941
282.31	1.910
282.78	1.963
283.25	1.907
283.72	1.881
284.18	1.862
284.65	1.864
285.12	1.832
285.59	1.812
286.05	1.840
286.52	1.823
286.99	1.815
287.46	1.794
287.92	1.788
288.39	1.801
288.86	1.764
289.33	1.770
289.79	1.768
290.26	1.743
290.73	1.715
291.20	1.727
291.66	1.724
292.13	1.697
292.60	1.686
293.07	1.700
293.53	1.668
294.00	1.666
294.47	1.658
294.93	1.678
295.40	1.647
295.87	1.639
296.34	1.650
296.80	1.611
297.27	1.619
297.74	1.621
298.20	1.598
298.67	1.596
299.14	1.590
299.60	1.580
300.07	1.574
300.54	1.569
301.01	1.531
301.47	1.535
301.94	1.537
302.41	1.534
302.87	1.532
303.34	1.524
303.81	1.500
304.27	1.499
304.74	1.485
305.21	1.490
305.67	1.469
306.14	1.461
306.61	1.477
307.07	1.453
307.54	1.438
308.01	1.439
308.47	1.430
308.94	1.429
309.40	1.421
309.87	1.414
310.34	1.408
310.80	1.400
311.27	1.398
311.74	1.392
312.20	1.381
312.67	1.376
313.13	1.373
313.60	1.368
314.07	1.361
314.53	1.353
315.00	1.346
315.47	1.357
315.93	1.332
316.40	1.324
316.86	1.328
317.33	1.313
317.80	1.317
318.26	1.304
318.73	1.306
319.19	1.300
319.66	1.290
320.13	1.287
320.59	1.283
321.06	1.289
321.52	1.274
321.99	1.279
322.45	1.262
322.92	1.250
323.39	1.255
323.85	1.251
324.32	1.245
324.78	1.239
325.25	1.239
325.71	1.236
326.18	1.214
326.64	1.230
327.11	1.224
327.58	1.209
328.04	1.206
328.51	1.214
328.97	1.196
329.44	1.194
329.90	1.193
330.37	1.185
330.83	1.171
331.30	1.180
331.76	1.168
332.23	1.174
332.69	1.161
333.16	1.151
333.62	1.153
334.09	1.150
334.56	1.125
335.02	1.136
335.49	1.127
335.95	1.115
336.42	1.116
336.88	1.112
337.35	1.120
337.81	1.094
338.28	1.091
338.74	1.092
339.20	1.091
339.67	1.077
340.13	1.082
340.60	1.068
341.06	1.051
341.53	1.048
341.99	1.047
342.46	1.041
342.92	1.022
343.39	1.020
343.85	1.017
344.32	1.006
344.78	1.002
345.25	1.000
345.71	0.991
346.17	0.985
346.64	0.976
347.10	0.964
347.57	0.952
348.03	0.939
348.50	0.938
348.96	0.923
349.43	0.917
349.89	0.900
350.35	0.903
350.82	0.889
351.28	0.880
351.75	0.866
352.21	0.854
352.67	0.851
353.14	0.846
353.60	0.827
354.07	0.822
354.53	0.814
355.00	0.799
355.46	0.784
355.92	0.779
356.39	0.766
356.85	0.767
357.31	0.758
357.78	0.746
358.24	0.735
358.71	0.729
359.17	0.724
359.63	0.717
360.10	0.711
360.56	0.710
361.03	0.701
361.49	0.692
361.95	0.690
362.42	0.681
362.88	0.678
363.34	0.673
363.81	0.665
364.27	0.661
364.73	0.658
365.20	0.656
365.66	0.656
366.12	0.649
366.59	0.645
367.05	0.648
367.51	0.642
367.98	0.634
368.44	0.635
368.90	0.633
369.37	0.632
369.83	0.625
370.29	0.623
370.76	0.627
371.22	0.621
371.68	0.614
372.15	0.615
372.61	0.617
373.07	0.614
373.54	0.607
374.00	0.609
374.46	0.606
374.92	0.601
375.39	0.602
375.85	0.597
376.31	0.599
376.78	0.589
377.24	0.594
377.70	0.593
378.16	0.585
378.63	0.585
379.09	0.584
379.55	0.586
380.01	0.583
380.48	0.578
380.94	0.580
381.40	0.576
381.87	0.573
382.33	0.575
382.79	0.572
383.25	0.571
383.72	0.573
384.18	0.566
384.64	0.561
385.10	0.562
385.56	0.566
386.03	0.561
386.49	0.558
386.95	0.561
387.41	0.553
387.88	0.552
388.34	0.551
388.80	0.551
389.26	0.549
389.72	0.548
390.19	0.545
390.65	0.543
391.11	0.543
391.57	0.541
392.04	0.536
392.50	0.537
392.96	0.537
393.42	0.532
393.88	0.538
394.34	0.532
394.81	0.530
395.27	0.526
395.73	0.528
396.19	0.525
396.65	0.522
397.12	0.521
397.58	0.520
398.04	0.518
398.50	0.516
398.96	0.516
399.42	0.522
399.89	0.513
400.35	0.516
400.81	0.512
401.27	0.510
401.73	0.504
402.19	0.505
402.65	0.507
403.12	0.503
403.58	0.501
404.04	0.503
404.50	0.501
404.96	0.499
405.42	0.500
405.88	0.496
406.34	0.497
406.81	0.494
407.27	0.491
407.73	0.492
408.19	0.488
408.65	0.482
409.11	0.485
409.57	0.486
410.03	0.482
410.49	0.483
410.96	0.481
411.42	0.482
411.88	0.478
412.34	0.475
412.80	0.475
413.26	0.469
413.72	0.473
414.18	0.473
414.64	0.468
415.10	0.471
415.56	0.471
416.02	0.469
416.48	0.465
416.95	0.463
417.41	0.463
417.87	0.461
418.33	0.461
418.79	0.459
419.25	0.459
419.71	0.458
420.17	0.454
420.63	0.456
421.09	0.455
421.55	0.452
422.01	0.452
422.47	0.452
422.93	0.454
423.39	0.449
423.85	0.449
424.31	0.443
424.77	0.442
425.23	0.446
425.69	0.450
426.15	0.447
426.61	0.440
427.07	0.438
427.53	0.442
427.99	0.438
428.45	0.437
428.91	0.438
429.37	0.435
429.83	0.434
430.29	0.434
430.75	0.435
431.21	0.435
431.67	0.433
432.13	0.432
432.59	0.429
433.05	0.427
433.51	0.423
433.97	0.425
434.43	0.425
434.89	0.426
435.35	0.419
435.81	0.418
436.27	0.420
436.73	0.418
437.19	0.417
437.65	0.419
438.11	0.418
438.57	0.415
439.03	0.414
439.48	0.415
439.94	0.411
440.40	0.412
440.86	0.412
441.32	0.410
441.78	0.411
442.24	0.406
442.70	0.406
443.16	0.403
443.62	0.407
444.08	0.405
444.54	0.404
444.99	0.398
445.45	0.401
445.91	0.401
446.37	0.400
446.83	0.400
447.29	0.398
447.75	0.398
448.21	0.397
448.67	0.394
449.12	0.394
449.58	0.394
450.04	0.389
450.50	0.392
450.96	0.389
451.42	0.389
451.88	0.388
452.34	0.389
452.79	0.384
453.25	0.389
453.71	0.387
454.17	0.383
454.63	0.382
455.09	0.382
455.55	0.382
456.00	0.378
456.46	0.381
456.92	0.381
457.38	0.378
457.84	0.380
458.30	0.374
458.75	0.377
459.21	0.371
459.67	0.376
460.13	0.373
460.59	0.370
461.04	0.369
461.50	0.370
461.96	0.369
462.42	0.370
462.88	0.369
463.33	0.366
463.79	0.367
464.25	0.366
464.71	0.365
465.17	0.366
465.62	0.364
466.08	0.365
466.54	0.361
467.00	0.362
467.46	0.362
467.91	0.359
468.37	0.361
468.83	0.359
469.29	0.358
469.74	0.360
470.20	0.357
470.66	0.355
471.12	0.352
471.57	0.355
472.03	0.356
472.49	0.354
472.95	0.354
473.40	0.352
473.86	0.350
474.32	0.349
474.78	0.351
475.23	0.350
475.69	0.351
476.15	0.348
476.60	0.346
477.06	0.345
477.52	0.344
477.98	0.344
478.43	0.344
478.89	0.342
479.35	0.343
479.80	0.343
480.26	0.344
480.72	0.339
481.18	0.343
481.63	0.342
482.09	0.340
482.55	0.341
483.00	0.335
483.46	0.335
483.92	0.334
484.37	0.337
484.83	0.332
485.29	0.336
485.74	0.333
486.20	0.332
486.66	0.331
487.11	0.331
487.57	0.331
488.03	0.330
488.48	0.330
488.94	0.328
489.40	0.326
489.85	0.329
490.31	0.326
490.77	0.326
491.22	0.330
491.68	0.325
492.13	0.324
492.59	0.325
493.05	0.323
493.50	0.324
493.96	0.322
494.42	0.320
494.87	0.318
495.33	0.317
495.78	0.321
496.24	0.322
496.70	0.317
497.15	0.319
497.61	0.319
498.06	0.317
498.52	0.315
498.98	0.315
499.43	0.315
499.89	0.315
500.34	0.313
500.80	0.314
501.25	0.309
501.71	0.310
502.17	0.312
502.62	0.313
503.08	0.310
503.53	0.309
503.99	0.309
504.44	0.307
504.90	0.307
505.36	0.305
505.81	0.305
506.27	0.307
506.72	0.306
507.18	0.306
507.63	0.305
508.09	0.303
508.54	0.302
509.00	0.301
509.45	0.301
509.91	0.302
510.36	0.302
510.82	0.299
511.27	0.300
511.73	0.301
512.19	0.300
512.64	0.300
513.10	0.298
513.55	0.300
514.01	0.296
514.46	0.296
514.92	0.296
515.37	0.294
515.83	0.295
516.28	0.295
516.73	0.292
517.19	0.294
517.64	0.289
518.10	0.291
518.55	0.290
519.01	0.290
519.46	0.287
519.92	0.290
520.37	0.285
520.83	0.286
521.28	0.289
521.74	0.288
522.19	0.285
522.65	0.286
523.10	0.288
523.55	0.283
524.01	0.288
524.46	0.285
524.92	0.284
525.37	0.285
525.83	0.282
526.28	0.280
526.73	0.286
527.19	0.285
527.64	0.286
528.10	0.282
528.55	0.282
529.01	0.280
529.46	0.280
529.91	0.280
530.37	0.279
530.82	0.278
531.28	0.276
531.73	0.274
532.18	0.276
532.64	0.277
533.09	0.274
533.54	0.277
534.00	0.274
534.45	0.279
534.91	0.277
535.36	0.277
535.81	0.273
536.27	0.272
536.72	0.274
537.17	0.273
537.63	0.270
538.08	0.270
538.54	0.273
538.99	0.274
539.44	0.272
539.90	0.269
540.35	0.269
540.80	0.271
541.26	0.270
541.71	0.269
542.16	0.268
542.62	0.268
543.07	0.269
543.52	0.268
543.98	0.269
544.43	0.265
544.88	0.264
545.34	0.265
545.79	0.263
546.24	0.265
546.69	0.269
547.15	0.264
547.60	0.264
548.05	0.264
548.51	0.262
548.96	0.263
549.41	0.265
549.86	0.263
550.32	0.264
550.77	0.263
551.22	0.260
551.68	0.261
552.13	0.260
552.58	0.259
553.03	0.259
553.49	0.261
553.94	0.260
554.39	0.260
554.84	0.260
555.30	0.260
555.75	0.258
556.20	0.259
556.65	0.257
557.11	0.258
557.56	0.257
558.01	0.258
558.46	0.260
558.92	0.256
559.37	0.256
559.82	0.257
560.27	0.256
560.72	0.257
561.18	0.255
561.63	0.255
562.08	0.252
562.53	0.256
562.99	0.256
563.44	0.253
563.89	0.252
564.34	0.254
564.79	0.253
565.25	0.253
565.70	0.252
566.15	0.251
566.60	0.253
567.05	0.252
567.50	0.253
567.96	0.254
568.41	0.250
568.86	0.248
569.31	0.249
569.76	0.249
570.21	0.249
570.67	0.250
571.12	0.252
571.57	0.250
572.02	0.248
572.47	0.247
572.92	0.250
573.37	0.248
573.83	0.245
574.28	0.247
574.73	0.248
575.18	0.248
575.63	0.250
576.08	0.245
576.53	0.248
576.98	0.246
577.44	0.244
577.89	0.246
578.34	0.247
578.79	0.244
579.24	0.246
579.69	0.245
580.14	0.243
580.59	0.244
581.04	0.244
581.49	0.244
581.95	0.244
582.40	0.244
582.85	0.242
583.30	0.243
583.75	0.242
584.20	0.244
584.65	0.243
585.10	0.244
585.55	0.244
586.00	0.242
586.45	0.242
586.90	0.244
587.35	0.243
587.80	0.241
588.25	0.243
588.71	0.242
589.16	0.243
589.61	0.242
590.06	0.240
590.51	0.244
590.96	0.243
591.41	0.241
591.86	0.243
592.31	0.241
592.76	0.242
593.21	0.244
593.66	0.242
594.11	0.244
594.56	0.241
595.01	0.243
595.46	0.242
595.91	0.242
596.36	0.244
596.81	0.244
597.26	0.241
597.71	0.241
598.16	0.241
598.61	0.241
599.06	0.243
599.51	0.244
599.96	0.243
600.41	0.243
600.86	0.243
601.31	0.241
601.76	0.243
602.21	0.243
602.65	0.243
603.10	0.241
603.55	0.242
604.00	0.242
604.45	0.241
604.90	0.242
605.35	0.241
605.80	0.243
606.25	0.243
606.70	0.243
607.15	0.240
607.60	0.242
608.05	0.239
608.50	0.241
608.95	0.239
609.39	0.244
609.84	0.240
610.29	0.240
610.74	0.240
611.19	0.238
611.64	0.240
612.09	0.241
612.54	0.240
612.99	0.242
613.44	0.239
613.88	0.240
614.33	0.239
614.78	0.240
615.23	0.237
615.68	0.237
616.13	0.240
616.58	0.238
617.03	0.240
617.47	0.240
617.92	0.237
618.37	0.237
618.82	0.238
619.27	0.237
619.72	0.236
620.17	0.235
620.61	0.236
621.06	0.237
621.51	0.238
621.96	0.236
622.41	0.237
622.86	0.236
623.30	0.236
623.75	0.237
624.20	0.235
624.65	0.235
625.10	0.235
625.54	0.236
625.99	0.235
626.44	0.236
626.89	0.236
627.34	0.237
627.78	0.237
628.23	0.234
628.68	0.236
629.13	0.235
629.58	0.236
630.02	0.236
630.47	0.235
630.92	0.236
631.37	0.236
631.81	0.236
632.26	0.237
632.71	0.236
633.16	0.236
633.61	0.236
634.05	0.234
634.50	0.236
634.95	0.237
635.40	0.237
635.84	0.237
636.29	0.237
636.74	0.236
637.18	0.236
637.63	0.237
638.08	0.235
638.53	0.236
638.97	0.235
639.42	0.237
639.87	0.237
640.32	0.236
640.76	0.239
641.21	0.236
641.66	0.238
642.10	0.236
642.55	0.237
643.00	0.238
643.44	0.238
643.89	0.240
644.34	0.238
644.79	0.238
645.23	0.238
645.68	0.238
646.13	0.238
646.57	0.240
647.02	0.238
647.47	0.242
647.91	0.240
648.36	0.240
648.81	0.241
649.25	0.238
649.70	0.240
650.15	0.239
650.59	0.240
651.04	0.239
651.48	0.243
651.93	0.240
652.38	0.238
652.82	0.240
653.27	0.241
653.72	0.241
654.16	0.240
654.61	0.241
655.06	0.240
655.50	0.237
655.95	0.238
656.39	0.232
656.84	0.235
657.29	0.241
657.73	0.238
658.18	0.239
658.62	0.240
659.07	0.238
659.52	0.240
659.96	0.240
660.41	0.241
660.85	0.238
661.30	0.236
661.74	0.238
662.19	0.237
662.64	0.237
663.08	0.236
663.53	0.235
663.97	0.234
664.42	0.236
664.86	0.237
665.31	0.234
665.75	0.233
666.20	0.234
666.65	0.232
667.09	0.231
667.54	0.233
667.98	0.231
668.43	0.229
668.87	0.230
669.32	0.229
669.76	0.228
670.21	0.228
670.65	0.225
671.10	0.225
671.54	0.224
671.99	0.223
672.43	0.222
672.88	0.220
673.32	0.223
673.77	0.218
674.21	0.218
674.66	0.217
675.10	0.215
675.55	0.212
675.99	0.213
676.44	0.211
676.88	0.214
677.33	0.209
677.77	0.209
678.22	0.206
678.66	0.205
679.11	0.206
679.55	0.205
679.99	0.201
680.44	0.202
680.88	0.198
681.33	0.196
681.77	0.197
682.22	0.195
682.66	0.196
683.11	0.191
683.55	0.193
683.99	0.190
684.44	0.188
684.88	0.187
685.33	0.187
685.77	0.184
686.21	0.183
686.66	0.184
687.10	0.182
687.55	0.182
687.99	0.184
688.44	0.181
688.88	0.180
689.32	0.180
689.77	0.179
690.21	0.175
690.65	0.174
691.10	0.175
691.54	0.172
691.99	0.171
692.43	0.171
692.87	0.171
693.32	0.172
693.76	0.171
694.20	0.171
694.65	0.170
695.09	0.168
695.53	0.169
695.98	0.167
696.42	0.169
696.86	0.166
697.31	0.165
697.75	0.166
698.19	0.163
698.64	0.166
699.08	0.165
699.52	0.163
699.97	0.165
700.41	0.163
700.85	0.164
701.30	0.162
701.74	0.161
702.18	0.163
702.63	0.161
703.07	0.161
703.51	0.162
703.96	0.161
704.40	0.160
704.84	0.162
705.28	0.160
705.73	0.159
706.17	0.161
706.61	0.159
707.06	0.159
707.50	0.157
707.94	0.154
708.38	0.155
708.83	0.158
709.27	0.158
709.71	0.156
710.15	0.158
710.60	0.155
711.04	0.156
711.48	0.159
711.92	0.156
712.37	0.155
712.81	0.156
713.25	0.156
713.69	0.157
714.13	0.157
714.58	0.155
715.02	0.155
715.46	0.154
715.90	0.153
716.35	0.154
716.79	0.156
717.23	0.156
717.67	0.156
718.11	0.156
718.56	0.154
719.00	0.154
719.44	0.155
719.88	0.154
720.32	0.154
720.76	0.157
721.21	0.153
721.65	0.154
722.09	0.154
722.53	0.152
722.97	0.155
723.41	0.152
723.86	0.154
724.30	0.154
724.74	0.154
725.18	0.154
725.62	0.151
726.06	0.155
726.50	0.151
726.95	0.153
727.39	0.152
727.83	0.149
728.27	0.152
728.71	0.153
729.15	0.153
729.59	0.154
730.03	0.152
730.48	0.153
730.92	0.151
731.36	0.154
731.80	0.153
732.24	0.153
732.68	0.149
733.12	0.150
733.56	0.151
734.00	0.152
734.44	0.153
734.89	0.152
735.33	0.152
735.77	0.155
736.21	0.153
736.65	0.151
737.09	0.155
737.53	0.154
737.97	0.154
738.41	0.151
738.85	0.153
739.29	0.153
739.73	0.150
740.17	0.152
740.61	0.152
741.05	0.152
741.49	0.151
741.93	0.152
742.37	0.148
742.81	0.150
743.26	0.152
743.70	0.152
744.14	0.150
744.58	0.148
745.02	0.151
745.46	0.150
745.90	0.152
746.34	0.153
746.78	0.151
747.22	0.150
747.66	0.151
748.10	0.152
748.54	0.149
748.98	0.148
749.42	0.148
749.86	0.149
750.29	0.150
750.73	0.147
751.17	0.148
751.61	0.150
752.05	0.149
752.49	0.145
752.93	0.147
753.37	0.147
753.81	0.146
754.25	0.144
754.69	0.145
755.13	0.146
755.57	0.149
756.01	0.146
756.45	0.147
756.89	0.148
757.33	0.148
757.77	0.145
758.21	0.143
758.64	0.143
759.08	0.141
759.52	0.145
759.96	0.147
760.40	0.146
760.84	0.146
761.28	0.143
761.72	0.143
762.16	0.146
762.60	0.144
763.03	0.145
763.47	0.145
763.91	0.144
764.35	0.142
764.79	0.141
765.23	0.138
765.67	0.141
766.11	0.142
766.54	0.141
766.98	0.144
767.42	0.144
767.86	0.139
768.30	0.144
768.74	0.143
769.17	0.143
769.61	0.143
770.05	0.143
770.49	0.143
770.93	0.144
771.37	0.141
771.80	0.141
772.24	0.140
772.68	0.139
773.12	0.140
773.56	0.139
774.00	0.136
774.43	0.139
774.87	0.140
775.31	0.139
775.75	0.141
776.19	0.139
776.62	0.139
777.06	0.141
777.50	0.138
777.94	0.139
778.37	0.136
778.81	0.138
779.25	0.141
779.69	0.141
780.13	0.140
780.56	0.139
781.00	0.138
781.44	0.139
781.88	0.140
782.31	0.138
782.75	0.137
783.19	0.141
783.63	0.137
784.06	0.135
784.50	0.141
784.94	0.140
785.37	0.138
785.81	0.137
786.25	0.138
786.69	0.137
787.12	0.138
787.56	0.135
788.00	0.138
788.43	0.139
788.87	0.135
789.31	0.136
789.75	0.136
790.18	0.135
790.62	0.135
791.06	0.136
791.49	0.133
791.93	0.134
792.37	0.136
792.80	0.133
793.24	0.132
793.68	0.135
794.11	0.134
794.55	0.137
794.99	0.135
795.42	0.136
795.86	0.140
796.30	0.135
796.73	0.135
797.17	0.137
797.61	0.134
798.04	0.133
798.48	0.134
798.91	0.134
799.35	0.135
799.79	0.137
800.22	0.134
800.66	0.135
801.10	0.134
801.53	0.133
801.97	0.135
802.40	0.135
802.84	0.134
803.28	0.127
803.71	0.132
804.15	0.134
804.58	0.134
805.02	0.134
805.46	0.136
805.89	0.133
806.33	0.131
806.76	0.130
807.20	0.138
807.63	0.134
808.07	0.134
808.51	0.128
808.94	0.129
809.38	0.134
809.81	0.131
810.25	0.133
810.68	0.132
811.12	0.131
811.55	0.137
811.99	0.133
812.42	0.136
812.86	0.132
813.29	0.133
813.73	0.132
814.17	0.130
814.60	0.133
815.04	0.129
815.47	0.130
815.91	0.129
816.34	0.133
816.78	0.128
817.21	0.133
817.65	0.131
818.08	0.131
818.52	0.132
818.95	0.133
819.39	0.131
819.82	0.132
820.25	0.129
820.69	0.128
821.12	0.132
821.56	0.130
821.99	0.131
822.43	0.129
822.86	0.133
823.30	0.131
823.73	0.126
824.17	0.127
824.60	0.126
825.04	0.132
825.47	0.127
825.90	0.128
826.34	0.132
826.77	0.129
827.21	0.132
827.64	0.133
828.08	0.130
828.51	0.130
828.94	0.133
829.38	0.130
829.81	0.133
830.25	0.134
830.68	0.135
831.11	0.134
831.55	0.133
831.98	0.133
832.42	0.131
832.85	0.135
833.28	0.135
833.72	0.137
834.15	0.135
834.58	0.138
835.02	0.133
835.45	0.138
835.88	0.136
836.32	0.133
836.75	0.132
837.19	0.136
837.62	0.134
838.05	0.133
838.49	0.136
838.92	0.139
839.35	0.135
839.79	0.134
840.22	0.135
840.65	0.135
841.09	0.134
841.52	0.136
841.95	0.137
842.39	0.137
842.82	0.132
843.25	0.132
843.68	0.133
844.12	0.137
844.55	0.134
844.98	0.135
845.42	0.134
845.85	0.127
846.28	0.130
846.71	0.135
847.15	0.140
847.58	0.139
848.01	0.137
848.45	0.138
848.88	0.140
849.31	0.133
849.74	0.140
850.18	0.138
850.61	0.134
851.04	0.134
851.47	0.139
851.91	0.135
852.34	0.135
852.77	0.137
853.20	0.132
853.64	0.127
854.07	0.137
854.50	0.131
854.93	0.139
855.36	0.136
855.80	0.133
856.23	0.133
856.66	0.135
857.09	0.136
857.52	0.134
857.96	0.127
858.39	0.135
858.82	0.131
859.25	0.138
859.68	0.136
860.12	0.130
860.55	0.134
860.98	0.133
861.41	0.130
861.84	0.139
862.27	0.130
862.71	0.134
863.14	0.132
863.57	0.136
864.00	0.137
864.43	0.137
864.86	0.136
865.30	0.142
865.73	0.142
866.16	0.139
866.59	0.138
867.02	0.136
867.45	0.135
867.88	0.132
868.31	0.133
868.75	0.139
869.18	0.140
869.61	0.141
870.04	0.131
870.47	0.140
870.90	0.136
871.33	0.138
871.76	0.139
872.19	0.139
872.62	0.134
873.06	0.134
873.49	0.134
873.92	0.138
874.35	0.136
874.78	0.134
875.21	0.140
875.64	0.131
876.07	0.134
876.50	0.133
876.93	0.138
877.36	0.143
877.79	0.140
878.22	0.135
878.65	0.138
879.08	0.143
879.51	0.141
879.94	0.137
880.37	0.136
880.80	0.144
881.23	0.138
881.67	0.136
882.10	0.136
882.53	0.138
882.96	0.142
883.39	0.137
883.82	0.135
884.25	0.135
884.68	0.142
885.11	0.138
885.54	0.141
885.97	0.141
886.39	0.136
886.82	0.136
887.25	0.136
887.68	0.136
888.11	0.142
888.54	0.141
888.97	0.141
889.40	0.142
889.83	0.137
890.26	0.132
890.69	0.139
891.12	0.140
891.55	0.141
891.98	0.137
892.41	0.135
892.84	0.136
893.27	0.140
893.70	0.140
894.13	0.141
894.56	0.142
894.98	0.140
895.41	0.146
895.84	0.140
896.27	0.137
896.70	0.139
897.13	0.144
897.56	0.141
897.99	0.138
898.42	0.137
898.85	0.144
899.27	0.139
899.70	0.140
900.13	0.144
900.56	0.141
900.99	0.139
901.42	0.144
901.85	0.144
902.28	0.139
902.70	0.140
903.13	0.141
903.56	0.143
903.99	0.138
904.42	0.139
904.85	0.144
905.27	0.138
905.70	0.137
906.13	0.145
906.56	0.140
906.99	0.138
907.42	0.137
907.84	0.137
908.27	0.140
908.70	0.142
909.13	0.140
909.56	0.139
909.98	0.137
910.41	0.139
910.84	0.140
911.27	0.137
911.70	0.136
912.12	0.138
912.55	0.137
912.98	0.141
913.41	0.141
913.84	0.141
914.26	0.136
914.69	0.141
915.12	0.141
915.55	0.138
915.97	0.137
916.40	0.140
916.83	0.141
917.26	0.141
917.68	0.142
918.11	0.139
918.54	0.137
918.97	0.138
919.39	0.140
919.82	0.139
920.25	0.138
920.67	0.138
921.10	0.143
921.53	0.143
921.96	0.142
922.38	0.143
922.81	0.142
923.24	0.145
923.66	0.143
924.09	0.145
924.52	0.143
924.94	0.144
925.37	0.144
925.80	0.147
926.22	0.144
926.65	0.143
927.08	0.146
927.50	0.146
927.93	0.149
928.36	0.143
928.78	0.148
929.21	0.148
929.64	0.152
930.06	0.154
930.49	0.152
930.92	0.157
931.34	0.155
931.77	0.153
932.20	0.155
932.62	0.156
933.05	0.155
933.47	0.158
933.90	0.161
934.33	0.153
934.75	0.158
935.18	0.161
935.61	0.159
936.03	0.161
936.46	0.166
936.88	0.165
937.31	0.163
937.73	0.169
938.16	0.169
938.59	0.169
939.01	0.177
939.44	0.177
939.86	0.176
940.29	0.184
940.71	0.185
941.14	0.189
941.57	0.185
941.99	0.185
942.42	0.183
942.84	0.195
943.27	0.195
943.69	0.194
944.12	0.195
944.54	0.201
944.97	0.197
945.39	0.193
945.82	0.201
946.24	0.208
946.67	0.209
947.09	0.202
947.52	0.206
947.94	0.209
948.37	0.214
948.79	0.213
949.22	0.221
949.64	0.214
950.07	0.221
950.49	0.226
950.92	0.226
951.34	0.223
951.77	0.229
952.19	0.230
952.62	0.236
953.04	0.240
953.47	0.248
953.89	0.242
954.32	0.252
954.74	0.251
955.17	0.245
955.59	0.257
956.01	0.257
956.44	0.259
956.86	0.261
957.29	0.267
957.71	0.271
958.14	0.267
958.56	0.263
958.98	0.274
959.41	0.276
959.83	0.276
960.26	0.275
960.68	0.283
961.10	0.286
961.53	0.281
961.95	0.287
962.38	0.292
962.80	0.286
963.22	0.284
963.65	0.288
964.07	0.283
964.50	0.291
964.92	0.290
965.34	0.291
965.77	0.287
966.19	0.289
966.61	0.293
967.04	0.295
967.46	0.291
967.88	0.296
968.31	0.295
968.73	0.293
969.15	0.294
969.58	0.297
970.00	0.294
970.42	0.293
970.85	0.292
971.27	0.287
971.69	0.292
972.12	0.301
972.54	0.300
972.96	0.295
973.39	0.298
973.81	0.305
974.23	0.299
974.65	0.293
975.08	0.297
975.50	0.300
975.92	0.305
976.35	0.295
976.77	0.293
977.19	0.300
977.61	0.296
978.04	0.295
978.46	0.303
978.88	0.296
979.30	0.303
979.73	0.295
980.15	0.299
980.57	0.300
980.99	0.304
981.42	0.296
981.84	0.297
982.26	0.297
982.68	0.301
983.11	0.303
983.53	0.295
983.95	0.298
984.37	0.298
984.79	0.296
985.22	0.294
985.64	0.293
986.06	0.297
986.48	0.293
986.90	0.293
987.33	0.290
987.75	0.290
988.17	0.290
988.59	0.289
989.01	0.286
989.43	0.285
989.86	0.284
990.28	0.288
990.70	0.284
991.12	0.287
991.54	0.287
991.96	0.285
992.39	0.286
992.81	0.281
993.23	0.278
993.65	0.278
994.07	0.285
994.49	0.274
994.91	0.283
995.34	0.277
995.76	0.282
996.18	0.283
996.60	0.277
997.02	0.284
997.44	0.276
997.86	0.281
998.28	0.273
998.70	0.279
999.12	0.267
999.55	0.270
999.97	0.276
1000.39	0.270
1000.81	0.271
1001.23	0.266
1001.65	0.269
1002.07	0.274
1002.49	0.273
1002.91	0.268
1003.33	0.270
1003.75	0.268
1004.17	0.263
1004.59	0.263
1005.01	0.260
1005.43	0.262
1005.85	0.266
1006.28	0.261
1006.70	0.261
1007.12	0.265
1007.54	0.256
1007.96	0.257
1008.38	0.255
1008.80	0.251
1009.22	0.251
1009.64	0.249
1010.06	0.251
1010.48	0.262
1010.90	0.250
1011.32	0.248
1011.74	0.246
1012.16	0.251
1012.58	0.248
1013.00	0.242
1013.42	0.235
1013.84	0.246
1014.26	0.238
1014.67	0.244
1015.09	0.245
1015.51	0.242
1015.93	0.241
1016.35	0.242
1016.77	0.243
1017.19	0.239
1017.61	0.235
1018.03	0.239
1018.45	0.252
1018.87	0.238
1019.29	0.242
1019.71	0.237
1020.13	0.234
1020.55	0.229
1020.97	0.225
1021.38	0.217
1021.80	0.225
1022.22	0.231
1022.64	0.215
1023.06	0.227
1023.48	0.227
1023.90	0.215
1024.32	0.213
1024.74	0.219
1025.15	0.227
1025.57	0.219
1025.99	0.213
1026.41	0.210
1026.83	0.215
1027.25	0.218
1027.67	0.223
1028.08	0.211
1028.50	0.224
1028.92	0.220
1029.34	0.219
1029.76	0.217
1030.18	0.219
1030.60	0.220
1031.01	0.213
1031.43	0.216
1031.85	0.215
1032.27	0.205
1032.69	0.201
1033.10	0.211
1033.52	0.208
1033.94	0.207
1034.36	0.199
1034.78	0.201
1035.19	0.196
1035.61	0.198
1036.03	0.218
1036.45	0.205
1036.87	0.203
1037.28	0.193
1037.70	0.205
1038.12	0.203
1038.54	0.198
1038.95	0.190
1039.37	0.197
1039.79	0.199
1040.21	0.201
1040.62	0.206
1041.04	0.195
1041.46	0.195
1041.88	0.206
1042.29	0.194
1042.71	0.197
1043.13	0.205
1043.55	0.187
1043.96	0.202
1044.38	0.203
1044.80	0.205
1045.21	0.172
1045.63	0.192
1046.05	0.189
1046.47	0.197
1046.88	0.185
1047.30	0.195
1047.72	0.169
1048.13	0.178
1048.55	0.194
1048.97	0.192
1049.38	0.205
1049.80	0.183
1050.22	0.203
1050.63	0.183
1051.05	0.205
1051.47	0.183
1051.88	0.189
1052.30	0.191
1052.72	0.194
1053.13	0.201
1053.55	0.191
1053.97	0.179
1054.38	0.197
1054.80	0.205
1055.21	0.185
1055.63	0.192
1056.05	0.190
1056.46	0.220
1056.88	0.226
1057.29	0.179
1057.71	0.203
1058.13	0.207
1058.54	0.203
1058.96	0.209
1059.37	0.217
1059.79	0.209
1060.21	0.191
1060.62	0.207
1061.04	0.228
1061.45	0.227
1061.87	0.185
1062.28	0.224
1062.70	0.238
1063.12	0.154
1063.53	0.184
1063.95	0.185
1064.36	0.204
1064.78	0.238
1065.19	0.268
1065.61	0.256
1066.02	0.291
1066.44	0.252
1066.85	0.215
1067.27	0.226
1067.68	0.239
1068.10	0.209
1068.51	0.286
1068.93	0.262
1069.35	0.342
1069.76	0.358
1070.17	0.315
1070.59	0.316
1071.00	0.348
1071.42	0.278
1071.83	0.260
1072.25	0.231
1072.66	0.320
1073.08	0.325
1073.49	0.372
1073.91	0.448
1074.32	0.383
1074.74	0.361
1075.15	0.516
1075.57	0.185
1075.98	0.453
1076.40	0.441
1076.81	0.718
1077.22	0.417
1077.64	0.366
1078.05	0.536
1078.47	0.389
1078.88	0.615
1079.30	0.767
1079.71	-0.000
1080.12	0.818
1080.54	-0.000
1080.95	0.455
1081.37	-0.000
1081.78	0.337
1082.19	0.617
1082.61	0.807
1083.02	-0.000
1083.44	0.730
1083.85	-0.000
1084.26	-0.000
1084.68	-0.000
1085.09	0.718
1085.50	1.748
1085.92	-0.000
1086.33	-0.000
1086.74	-0.000
1087.16	-0.000
1087.57	-0.000
1087.98	1.966
1088.40	-0.000
1088.81	-0.000
1089.22	-0.000
1089.64	-0.000
1090.05	-0.000
1090.46	-0.000
1090.88	-0.000
1091.29	0.876
1091.70	-0.000
1092.12	-0.000
1092.53	-0.000
1092.94	-0.000
1093.36	-0.000
1093.77	-0.000
1094.18	0.780
1094.59	-0.000
1095.01	-0.000
1095.42	-0.000
1095.83	-0.000
1096.25	-0.000
1096.66	-0.000
1097.07	-0.000
1097.48	-0.000
1097.90	-0.000
1098.31	-0.000
1098.72	-0.000
1099.13	-0.000
>>>>>End Processed Spectral Data<<<<<
