SpectraSuite Data File
++++++++++++++++++++++++++++++++++++
Date: Sun Apr 24 17:16:10 CEST 2016
User: spectrasuite
Dark Spectrum Present: Yes
Reference Spectrum Present: Yes
Number of Sampled Component Spectra: 1
Spectrometers: HR+C0708
Integration Time (usec): 1000 (HR+C0708)
Spectra Averaged: 10 (HR+C0708)
Boxcar Smoothing: 0 (HR+C0708)
Correct for Electrical Dark: No (HR+C0708)
Strobe/Lamp Enabled: No (HR+C0708)
Correct for Detector Non-linearity: No (HR+C0708)
Correct for Stray Light: No (HR+C0708)
Number of Pixels in Processed Spectrum: 2048
>>>>>Begin Processed Spectral Data<<<<<
188.76	-0.000
189.23	-0.000
189.70	-0.000
190.17	-0.000
190.64	-0.000
191.12	-0.000
191.59	-0.000
192.06	-0.000
192.53	-0.000
193.01	-0.000
193.48	-0.000
193.95	-0.000
194.42	-0.000
194.90	-0.000
195.37	-0.000
195.84	-0.000
196.31	-0.000
196.78	-0.000
197.26	-0.000
197.73	-0.000
198.20	-0.000
198.67	-0.000
199.14	-0.000
199.62	-0.000
200.09	0.783
200.56	-0.000
201.03	-0.000
201.50	1.771
201.97	-0.000
202.45	-0.000
202.92	0.967
203.39	1.193
203.86	1.352
204.33	1.326
204.80	-0.000
205.28	1.188
205.75	-0.000
206.22	-0.000
206.69	1.826
207.16	-0.000
207.63	-0.000
208.11	0.848
208.58	2.481
209.05	-0.000
209.52	-0.000
209.99	-0.000
210.46	1.208
210.93	-0.000
211.41	1.021
211.88	1.019
212.35	-0.000
212.82	-0.000
213.29	1.515
213.76	-0.000
214.23	-0.000
214.70	-0.000
215.18	1.695
215.65	1.141
216.12	1.187
216.59	2.119
217.06	2.417
217.53	-0.000
218.00	-0.000
218.47	1.324
218.94	-0.000
219.41	-0.000
219.89	-0.000
220.36	-0.000
220.83	-0.000
221.30	1.905
221.77	1.859
222.24	-0.000
222.71	-0.000
223.18	-0.000
223.65	-0.000
224.12	-0.000
224.59	-0.000
225.06	-0.000
225.54	1.323
226.01	1.244
226.48	1.568
226.95	-0.000
227.42	1.528
227.89	-0.000
228.36	-0.000
228.83	2.054
229.30	3.471
229.77	3.221
230.24	1.802
230.71	-0.000
231.18	1.939
231.65	-0.000
232.12	2.255
232.59	2.420
233.06	-0.000
233.53	-0.000
234.00	2.153
234.47	2.297
234.94	-0.000
235.41	2.496
235.88	-0.000
236.35	-0.000
236.82	2.462
237.29	3.115
237.76	-0.000
238.23	-0.000
238.70	2.619
239.17	2.634
239.64	2.596
240.11	-0.000
240.58	3.186
241.05	2.981
241.52	2.866
241.99	-0.000
242.46	2.886
242.93	-0.000
243.40	-0.000
243.87	2.794
244.34	2.451
244.81	2.947
245.28	-0.000
245.75	3.136
246.22	3.111
246.69	-0.000
247.16	-0.000
247.63	3.044
248.10	2.651
248.57	3.076
249.04	-0.000
249.51	-0.000
249.98	-0.000
250.45	-0.000
250.92	3.407
251.39	3.269
251.85	3.207
252.32	-0.000
252.79	2.937
253.26	3.001
253.73	-0.000
254.20	2.675
254.67	2.713
255.14	3.707
255.61	3.189
256.08	3.016
256.55	3.556
257.02	2.978
257.49	-0.000
257.95	2.970
258.42	2.840
258.89	2.816
259.36	2.657
259.83	2.795
260.30	3.394
260.77	2.949
261.24	2.533
261.71	2.766
262.17	2.900
262.64	2.621
263.11	2.642
263.58	2.687
264.05	2.528
264.52	2.596
264.99	2.482
265.46	2.555
265.92	2.580
266.39	2.409
266.86	2.565
267.33	2.423
267.80	2.320
268.27	2.412
268.74	2.352
269.20	2.419
269.67	2.388
270.14	2.283
270.61	2.235
271.08	2.281
271.55	2.220
272.01	2.236
272.48	2.253
272.95	2.209
273.42	2.182
273.89	2.197
274.36	2.169
274.82	2.122
275.29	2.103
275.76	2.103
276.23	2.074
276.70	2.056
277.16	2.023
277.63	2.031
278.10	2.063
278.57	1.994
279.04	2.014
279.50	2.005
279.97	1.991
280.44	1.967
280.91	1.984
281.38	1.920
281.84	1.932
282.31	1.945
282.78	1.948
283.25	1.895
283.72	1.868
284.18	1.870
284.65	1.884
285.12	1.857
285.59	1.815
286.05	1.853
286.52	1.827
286.99	1.814
287.46	1.810
287.92	1.810
288.39	1.773
288.86	1.775
289.33	1.755
289.79	1.759
290.26	1.768
290.73	1.729
291.20	1.749
291.66	1.723
292.13	1.697
292.60	1.698
293.07	1.710
293.53	1.668
294.00	1.706
294.47	1.683
294.93	1.687
295.40	1.662
295.87	1.648
296.34	1.664
296.80	1.626
297.27	1.630
297.74	1.620
298.20	1.610
298.67	1.589
299.14	1.611
299.60	1.598
300.07	1.580
300.54	1.573
301.01	1.571
301.47	1.568
301.94	1.555
302.41	1.549
302.87	1.555
303.34	1.571
303.81	1.516
304.27	1.521
304.74	1.517
305.21	1.495
305.67	1.533
306.14	1.490
306.61	1.487
307.07	1.476
307.54	1.460
308.01	1.486
308.47	1.465
308.94	1.470
309.40	1.450
309.87	1.450
310.34	1.434
310.80	1.435
311.27	1.439
311.74	1.440
312.20	1.438
312.67	1.404
313.13	1.408
313.60	1.404
314.07	1.398
314.53	1.392
315.00	1.377
315.47	1.394
315.93	1.377
316.40	1.362
316.86	1.355
317.33	1.347
317.80	1.352
318.26	1.358
318.73	1.348
319.19	1.333
319.66	1.324
320.13	1.322
320.59	1.310
321.06	1.318
321.52	1.322
321.99	1.314
322.45	1.285
322.92	1.283
323.39	1.287
323.85	1.290
324.32	1.284
324.78	1.290
325.25	1.275
325.71	1.265
326.18	1.265
326.64	1.262
327.11	1.257
327.58	1.256
328.04	1.248
328.51	1.240
328.97	1.239
329.44	1.234
329.90	1.224
330.37	1.221
330.83	1.207
331.30	1.220
331.76	1.213
332.23	1.193
332.69	1.189
333.16	1.184
333.62	1.173
334.09	1.166
334.56	1.155
335.02	1.152
335.49	1.155
335.95	1.135
336.42	1.137
336.88	1.133
337.35	1.123
337.81	1.121
338.28	1.113
338.74	1.102
339.20	1.097
339.67	1.090
340.13	1.087
340.60	1.067
341.06	1.061
341.53	1.055
341.99	1.054
342.46	1.030
342.92	1.026
343.39	1.029
343.85	1.013
344.32	1.002
344.78	0.992
345.25	0.995
345.71	0.984
346.17	0.977
346.64	0.967
347.10	0.957
347.57	0.936
348.03	0.930
348.50	0.911
348.96	0.908
349.43	0.894
349.89	0.885
350.35	0.878
350.82	0.872
351.28	0.864
351.75	0.857
352.21	0.844
352.67	0.828
353.14	0.827
353.60	0.815
354.07	0.807
354.53	0.793
355.00	0.781
355.46	0.774
355.92	0.763
356.39	0.751
356.85	0.754
357.31	0.738
357.78	0.733
358.24	0.723
358.71	0.712
359.17	0.713
359.63	0.707
360.10	0.702
360.56	0.696
361.03	0.689
361.49	0.684
361.95	0.682
362.42	0.677
362.88	0.671
363.34	0.666
363.81	0.659
364.27	0.658
364.73	0.657
365.20	0.654
365.66	0.651
366.12	0.648
366.59	0.641
367.05	0.640
367.51	0.637
367.98	0.634
368.44	0.634
368.90	0.626
369.37	0.625
369.83	0.624
370.29	0.622
370.76	0.619
371.22	0.616
371.68	0.614
372.15	0.609
372.61	0.606
373.07	0.606
373.54	0.606
374.00	0.603
374.46	0.602
374.92	0.600
375.39	0.595
375.85	0.595
376.31	0.594
376.78	0.593
377.24	0.592
377.70	0.586
378.16	0.584
378.63	0.582
379.09	0.581
379.55	0.578
380.01	0.580
380.48	0.580
380.94	0.575
381.40	0.572
381.87	0.567
382.33	0.570
382.79	0.566
383.25	0.568
383.72	0.566
384.18	0.562
384.64	0.560
385.10	0.561
385.56	0.556
386.03	0.554
386.49	0.550
386.95	0.549
387.41	0.547
387.88	0.547
388.34	0.548
388.80	0.543
389.26	0.547
389.72	0.545
390.19	0.544
390.65	0.538
391.11	0.540
391.57	0.535
392.04	0.529
392.50	0.530
392.96	0.529
393.42	0.528
393.88	0.534
394.34	0.528
394.81	0.524
395.27	0.523
395.73	0.525
396.19	0.520
396.65	0.518
397.12	0.517
397.58	0.517
398.04	0.515
398.50	0.516
398.96	0.511
399.42	0.514
399.89	0.511
400.35	0.508
400.81	0.503
401.27	0.506
401.73	0.503
402.19	0.502
402.65	0.499
403.12	0.499
403.58	0.498
404.04	0.498
404.50	0.496
404.96	0.492
405.42	0.495
405.88	0.492
406.34	0.491
406.81	0.492
407.27	0.488
407.73	0.489
408.19	0.491
408.65	0.484
409.11	0.481
409.57	0.482
410.03	0.479
410.49	0.485
410.96	0.479
411.42	0.479
411.88	0.475
412.34	0.470
412.80	0.476
413.26	0.473
413.72	0.467
414.18	0.468
414.64	0.465
415.10	0.469
415.56	0.465
416.02	0.467
416.48	0.460
416.95	0.460
417.41	0.458
417.87	0.459
418.33	0.459
418.79	0.456
419.25	0.456
419.71	0.453
420.17	0.455
420.63	0.451
421.09	0.452
421.55	0.447
422.01	0.451
422.47	0.448
422.93	0.449
423.39	0.445
423.85	0.446
424.31	0.445
424.77	0.442
425.23	0.443
425.69	0.442
426.15	0.442
426.61	0.437
427.07	0.433
427.53	0.434
427.99	0.432
428.45	0.435
428.91	0.433
429.37	0.432
429.83	0.430
430.29	0.430
430.75	0.432
431.21	0.429
431.67	0.429
432.13	0.428
432.59	0.426
433.05	0.422
433.51	0.421
433.97	0.422
434.43	0.421
434.89	0.423
435.35	0.418
435.81	0.418
436.27	0.419
436.73	0.418
437.19	0.415
437.65	0.415
438.11	0.410
438.57	0.415
439.03	0.410
439.48	0.407
439.94	0.406
440.40	0.406
440.86	0.410
441.32	0.406
441.78	0.403
442.24	0.403
442.70	0.403
443.16	0.402
443.62	0.403
444.08	0.402
444.54	0.401
444.99	0.396
445.45	0.396
445.91	0.393
446.37	0.392
446.83	0.392
447.29	0.394
447.75	0.392
448.21	0.392
448.67	0.391
449.12	0.389
449.58	0.393
450.04	0.388
450.50	0.387
450.96	0.386
451.42	0.385
451.88	0.383
452.34	0.384
452.79	0.385
453.25	0.383
453.71	0.381
454.17	0.379
454.63	0.381
455.09	0.382
455.55	0.378
456.00	0.377
456.46	0.374
456.92	0.374
457.38	0.376
457.84	0.370
458.30	0.369
458.75	0.373
459.21	0.367
459.67	0.368
460.13	0.370
460.59	0.371
461.04	0.367
461.50	0.365
461.96	0.365
462.42	0.367
462.88	0.362
463.33	0.362
463.79	0.361
464.25	0.363
464.71	0.361
465.17	0.361
465.62	0.361
466.08	0.361
466.54	0.358
467.00	0.361
467.46	0.358
467.91	0.357
468.37	0.355
468.83	0.356
469.29	0.356
469.74	0.355
470.20	0.353
470.66	0.348
471.12	0.346
471.57	0.351
472.03	0.350
472.49	0.349
472.95	0.351
473.40	0.347
473.86	0.344
474.32	0.344
474.78	0.346
475.23	0.343
475.69	0.346
476.15	0.342
476.60	0.343
477.06	0.344
477.52	0.340
477.98	0.339
478.43	0.338
478.89	0.338
479.35	0.335
479.80	0.340
480.26	0.336
480.72	0.334
481.18	0.334
481.63	0.336
482.09	0.333
482.55	0.334
483.00	0.330
483.46	0.332
483.92	0.330
484.37	0.329
484.83	0.327
485.29	0.329
485.74	0.327
486.20	0.328
486.66	0.329
487.11	0.326
487.57	0.325
488.03	0.324
488.48	0.324
488.94	0.323
489.40	0.323
489.85	0.322
490.31	0.324
490.77	0.320
491.22	0.319
491.68	0.321
492.13	0.320
492.59	0.317
493.05	0.319
493.50	0.318
493.96	0.316
494.42	0.316
494.87	0.315
495.33	0.313
495.78	0.316
496.24	0.314
496.70	0.314
497.15	0.314
497.61	0.311
498.06	0.312
498.52	0.308
498.98	0.309
499.43	0.311
499.89	0.308
500.34	0.309
500.80	0.309
501.25	0.309
501.71	0.307
502.17	0.306
502.62	0.308
503.08	0.302
503.53	0.303
503.99	0.301
504.44	0.304
504.90	0.303
505.36	0.301
505.81	0.301
506.27	0.300
506.72	0.301
507.18	0.301
507.63	0.296
508.09	0.301
508.54	0.298
509.00	0.295
509.45	0.298
509.91	0.296
510.36	0.295
510.82	0.294
511.27	0.293
511.73	0.293
512.19	0.294
512.64	0.293
513.10	0.293
513.55	0.292
514.01	0.289
514.46	0.289
514.92	0.289
515.37	0.290
515.83	0.289
516.28	0.286
516.73	0.287
517.19	0.289
517.64	0.283
518.10	0.285
518.55	0.286
519.01	0.283
519.46	0.284
519.92	0.284
520.37	0.280
520.83	0.284
521.28	0.281
521.74	0.282
522.19	0.283
522.65	0.279
523.10	0.282
523.55	0.280
524.01	0.280
524.46	0.278
524.92	0.278
525.37	0.277
525.83	0.279
526.28	0.274
526.73	0.276
527.19	0.281
527.64	0.278
528.10	0.277
528.55	0.275
529.01	0.275
529.46	0.273
529.91	0.273
530.37	0.272
530.82	0.270
531.28	0.271
531.73	0.271
532.18	0.269
532.64	0.270
533.09	0.268
533.54	0.269
534.00	0.268
534.45	0.270
534.91	0.270
535.36	0.270
535.81	0.268
536.27	0.268
536.72	0.267
537.17	0.266
537.63	0.262
538.08	0.264
538.54	0.266
538.99	0.262
539.44	0.265
539.90	0.265
540.35	0.263
540.80	0.262
541.26	0.263
541.71	0.260
542.16	0.260
542.62	0.258
543.07	0.260
543.52	0.261
543.98	0.258
544.43	0.257
544.88	0.259
545.34	0.257
545.79	0.258
546.24	0.255
546.69	0.259
547.15	0.255
547.60	0.256
548.05	0.256
548.51	0.254
548.96	0.256
549.41	0.256
549.86	0.251
550.32	0.252
550.77	0.254
551.22	0.253
551.68	0.250
552.13	0.250
552.58	0.248
553.03	0.250
553.49	0.249
553.94	0.249
554.39	0.250
554.84	0.250
555.30	0.249
555.75	0.249
556.20	0.248
556.65	0.247
557.11	0.248
557.56	0.245
558.01	0.249
558.46	0.245
558.92	0.243
559.37	0.245
559.82	0.246
560.27	0.245
560.72	0.243
561.18	0.244
561.63	0.244
562.08	0.240
562.53	0.244
562.99	0.242
563.44	0.242
563.89	0.241
564.34	0.242
564.79	0.242
565.25	0.239
565.70	0.240
566.15	0.239
566.60	0.239
567.05	0.237
567.50	0.237
567.96	0.237
568.41	0.235
568.86	0.238
569.31	0.235
569.76	0.236
570.21	0.233
570.67	0.236
571.12	0.235
571.57	0.234
572.02	0.234
572.47	0.234
572.92	0.233
573.37	0.231
573.83	0.232
574.28	0.233
574.73	0.231
575.18	0.229
575.63	0.231
576.08	0.229
576.53	0.229
576.98	0.232
577.44	0.226
577.89	0.230
578.34	0.228
578.79	0.228
579.24	0.226
579.69	0.227
580.14	0.225
580.59	0.226
581.04	0.227
581.49	0.225
581.95	0.227
582.40	0.224
582.85	0.224
583.30	0.223
583.75	0.223
584.20	0.223
584.65	0.223
585.10	0.221
585.55	0.224
586.00	0.221
586.45	0.221
586.90	0.222
587.35	0.221
587.80	0.220
588.25	0.220
588.71	0.223
589.16	0.220
589.61	0.219
590.06	0.219
590.51	0.219
590.96	0.219
591.41	0.216
591.86	0.220
592.31	0.218
592.76	0.219
593.21	0.218
593.66	0.218
594.11	0.217
594.56	0.216
595.01	0.217
595.46	0.217
595.91	0.218
596.36	0.216
596.81	0.213
597.26	0.215
597.71	0.215
598.16	0.215
598.61	0.213
599.06	0.213
599.51	0.216
599.96	0.214
600.41	0.214
600.86	0.214
601.31	0.213
601.76	0.213
602.21	0.213
602.65	0.212
603.10	0.213
603.55	0.210
604.00	0.211
604.45	0.211
604.90	0.213
605.35	0.209
605.80	0.210
606.25	0.211
606.70	0.209
607.15	0.209
607.60	0.207
608.05	0.207
608.50	0.207
608.95	0.206
609.39	0.209
609.84	0.204
610.29	0.207
610.74	0.206
611.19	0.206
611.64	0.206
612.09	0.205
612.54	0.205
612.99	0.205
613.44	0.205
613.88	0.206
614.33	0.204
614.78	0.203
615.23	0.202
615.68	0.202
616.13	0.202
616.58	0.201
617.03	0.201
617.47	0.203
617.92	0.200
618.37	0.200
618.82	0.200
619.27	0.201
619.72	0.200
620.17	0.199
620.61	0.198
621.06	0.201
621.51	0.200
621.96	0.198
622.41	0.197
622.86	0.200
623.30	0.198
623.75	0.199
624.20	0.197
624.65	0.198
625.10	0.197
625.54	0.198
625.99	0.197
626.44	0.196
626.89	0.195
627.34	0.198
627.78	0.196
628.23	0.194
628.68	0.195
629.13	0.194
629.58	0.194
630.02	0.195
630.47	0.195
630.92	0.194
631.37	0.193
631.81	0.194
632.26	0.195
632.71	0.192
633.16	0.193
633.61	0.193
634.05	0.190
634.50	0.191
634.95	0.191
635.40	0.191
635.84	0.192
636.29	0.191
636.74	0.191
637.18	0.192
637.63	0.191
638.08	0.189
638.53	0.190
638.97	0.189
639.42	0.189
639.87	0.190
640.32	0.188
640.76	0.190
641.21	0.190
641.66	0.189
642.10	0.190
642.55	0.187
643.00	0.187
643.44	0.188
643.89	0.189
644.34	0.187
644.79	0.188
645.23	0.186
645.68	0.186
646.13	0.188
646.57	0.188
647.02	0.185
647.47	0.187
647.91	0.186
648.36	0.185
648.81	0.186
649.25	0.184
649.70	0.184
650.15	0.183
650.59	0.184
651.04	0.183
651.48	0.185
651.93	0.185
652.38	0.181
652.82	0.183
653.27	0.182
653.72	0.184
654.16	0.181
654.61	0.182
655.06	0.181
655.50	0.181
655.95	0.178
656.39	0.174
656.84	0.178
657.29	0.184
657.73	0.182
658.18	0.180
658.62	0.180
659.07	0.181
659.52	0.179
659.96	0.180
660.41	0.181
660.85	0.178
661.30	0.180
661.74	0.179
662.19	0.179
662.64	0.178
663.08	0.178
663.53	0.177
663.97	0.176
664.42	0.177
664.86	0.178
665.31	0.177
665.75	0.175
666.20	0.179
666.65	0.176
667.09	0.175
667.54	0.174
667.98	0.175
668.43	0.177
668.87	0.175
669.32	0.174
669.76	0.173
670.21	0.175
670.65	0.172
671.10	0.174
671.54	0.175
671.99	0.172
672.43	0.173
672.88	0.172
673.32	0.172
673.77	0.172
674.21	0.171
674.66	0.172
675.10	0.171
675.55	0.167
675.99	0.172
676.44	0.169
676.88	0.170
677.33	0.170
677.77	0.168
678.22	0.168
678.66	0.167
679.11	0.168
679.55	0.169
679.99	0.166
680.44	0.170
680.88	0.167
681.33	0.168
681.77	0.164
682.22	0.166
682.66	0.166
683.11	0.166
683.55	0.165
683.99	0.165
684.44	0.165
684.88	0.163
685.33	0.164
685.77	0.166
686.21	0.166
686.66	0.164
687.10	0.162
687.55	0.163
687.99	0.165
688.44	0.164
688.88	0.162
689.32	0.165
689.77	0.161
690.21	0.161
690.65	0.162
691.10	0.160
691.54	0.161
691.99	0.162
692.43	0.159
692.87	0.159
693.32	0.160
693.76	0.161
694.20	0.161
694.65	0.159
695.09	0.161
695.53	0.158
695.98	0.158
696.42	0.158
696.86	0.158
697.31	0.156
697.75	0.157
698.19	0.155
698.64	0.156
699.08	0.159
699.52	0.156
699.97	0.158
700.41	0.158
700.85	0.159
701.30	0.155
701.74	0.157
702.18	0.155
702.63	0.157
703.07	0.157
703.51	0.158
703.96	0.157
704.40	0.157
704.84	0.157
705.28	0.156
705.73	0.155
706.17	0.156
706.61	0.154
707.06	0.153
707.50	0.155
707.94	0.151
708.38	0.154
708.83	0.156
709.27	0.154
709.71	0.153
710.15	0.156
710.60	0.155
711.04	0.151
711.48	0.154
711.92	0.154
712.37	0.153
712.81	0.155
713.25	0.154
713.69	0.152
714.13	0.155
714.58	0.153
715.02	0.155
715.46	0.152
715.90	0.150
716.35	0.152
716.79	0.153
717.23	0.154
717.67	0.153
718.11	0.154
718.56	0.153
719.00	0.154
719.44	0.152
719.88	0.152
720.32	0.154
720.76	0.153
721.21	0.152
721.65	0.152
722.09	0.154
722.53	0.151
722.97	0.153
723.41	0.150
723.86	0.152
724.30	0.151
724.74	0.155
725.18	0.150
725.62	0.150
726.06	0.154
726.50	0.150
726.95	0.151
727.39	0.152
727.83	0.152
728.27	0.153
728.71	0.151
729.15	0.151
729.59	0.153
730.03	0.151
730.48	0.153
730.92	0.150
731.36	0.151
731.80	0.149
732.24	0.152
732.68	0.149
733.12	0.148
733.56	0.149
734.00	0.150
734.44	0.151
734.89	0.151
735.33	0.150
735.77	0.154
736.21	0.153
736.65	0.149
737.09	0.153
737.53	0.152
737.97	0.150
738.41	0.151
738.85	0.153
739.29	0.152
739.73	0.150
740.17	0.150
740.61	0.152
741.05	0.151
741.49	0.150
741.93	0.152
742.37	0.146
742.81	0.149
743.26	0.149
743.70	0.152
744.14	0.149
744.58	0.147
745.02	0.149
745.46	0.150
745.90	0.149
746.34	0.151
746.78	0.148
747.22	0.149
747.66	0.151
748.10	0.150
748.54	0.148
748.98	0.146
749.42	0.149
749.86	0.148
750.29	0.148
750.73	0.146
751.17	0.146
751.61	0.148
752.05	0.149
752.49	0.146
752.93	0.145
753.37	0.145
753.81	0.146
754.25	0.146
754.69	0.144
755.13	0.147
755.57	0.150
756.01	0.147
756.45	0.145
756.89	0.147
757.33	0.147
757.77	0.146
758.21	0.146
758.64	0.142
759.08	0.140
759.52	0.144
759.96	0.145
760.40	0.142
760.84	0.143
761.28	0.142
761.72	0.145
762.16	0.143
762.60	0.145
763.03	0.141
763.47	0.142
763.91	0.145
764.35	0.140
764.79	0.140
765.23	0.139
765.67	0.142
766.11	0.138
766.54	0.139
766.98	0.143
767.42	0.141
767.86	0.137
768.30	0.140
768.74	0.142
769.17	0.142
769.61	0.143
770.05	0.142
770.49	0.143
770.93	0.141
771.37	0.139
771.80	0.140
772.24	0.142
772.68	0.138
773.12	0.139
773.56	0.140
774.00	0.139
774.43	0.136
774.87	0.139
775.31	0.137
775.75	0.138
776.19	0.138
776.62	0.137
777.06	0.140
777.50	0.139
777.94	0.136
778.37	0.136
778.81	0.138
779.25	0.139
779.69	0.138
780.13	0.139
780.56	0.138
781.00	0.138
781.44	0.138
781.88	0.138
782.31	0.138
782.75	0.136
783.19	0.142
783.63	0.135
784.06	0.136
784.50	0.139
784.94	0.136
785.37	0.137
785.81	0.139
786.25	0.134
786.69	0.134
787.12	0.134
787.56	0.135
788.00	0.138
788.43	0.138
788.87	0.134
789.31	0.134
789.75	0.136
790.18	0.133
790.62	0.136
791.06	0.134
791.49	0.135
791.93	0.133
792.37	0.138
792.80	0.133
793.24	0.131
793.68	0.133
794.11	0.132
794.55	0.133
794.99	0.135
795.42	0.136
795.86	0.134
796.30	0.133
796.73	0.135
797.17	0.133
797.61	0.133
798.04	0.132
798.48	0.134
798.91	0.132
799.35	0.133
799.79	0.134
800.22	0.135
800.66	0.131
801.10	0.135
801.53	0.134
801.97	0.136
802.40	0.138
802.84	0.132
803.28	0.134
803.71	0.135
804.15	0.131
804.58	0.130
805.02	0.136
805.46	0.131
805.89	0.132
806.33	0.132
806.76	0.132
807.20	0.132
807.63	0.131
808.07	0.132
808.51	0.130
808.94	0.131
809.38	0.133
809.81	0.129
810.25	0.132
810.68	0.134
811.12	0.130
811.55	0.129
811.99	0.130
812.42	0.135
812.86	0.128
813.29	0.130
813.73	0.132
814.17	0.129
814.60	0.132
815.04	0.130
815.47	0.128
815.91	0.125
816.34	0.129
816.78	0.130
817.21	0.132
817.65	0.132
818.08	0.129
818.52	0.133
818.95	0.130
819.39	0.133
819.82	0.131
820.25	0.132
820.69	0.127
821.12	0.131
821.56	0.130
821.99	0.127
822.43	0.129
822.86	0.134
823.30	0.133
823.73	0.130
824.17	0.128
824.60	0.123
825.04	0.132
825.47	0.129
825.90	0.128
826.34	0.132
826.77	0.128
827.21	0.128
827.64	0.129
828.08	0.132
828.51	0.127
828.94	0.132
829.38	0.128
829.81	0.132
830.25	0.132
830.68	0.136
831.11	0.129
831.55	0.132
831.98	0.134
832.42	0.134
832.85	0.131
833.28	0.136
833.72	0.135
834.15	0.135
834.58	0.131
835.02	0.134
835.45	0.136
835.88	0.133
836.32	0.138
836.75	0.136
837.19	0.137
837.62	0.136
838.05	0.131
838.49	0.135
838.92	0.134
839.35	0.138
839.79	0.132
840.22	0.134
840.65	0.130
841.09	0.134
841.52	0.132
841.95	0.129
842.39	0.134
842.82	0.129
843.25	0.130
843.68	0.135
844.12	0.128
844.55	0.132
844.98	0.130
845.42	0.130
845.85	0.131
846.28	0.137
846.71	0.131
847.15	0.141
847.58	0.137
848.01	0.132
848.45	0.135
848.88	0.135
849.31	0.135
849.74	0.135
850.18	0.134
850.61	0.135
851.04	0.139
851.47	0.136
851.91	0.133
852.34	0.136
852.77	0.135
853.20	0.135
853.64	0.128
854.07	0.134
854.50	0.136
854.93	0.137
855.36	0.133
855.80	0.135
856.23	0.134
856.66	0.135
857.09	0.134
857.52	0.133
857.96	0.131
858.39	0.136
858.82	0.131
859.25	0.136
859.68	0.136
860.12	0.129
860.55	0.133
860.98	0.134
861.41	0.134
861.84	0.135
862.27	0.128
862.71	0.134
863.14	0.133
863.57	0.135
864.00	0.135
864.43	0.139
864.86	0.135
865.30	0.138
865.73	0.139
866.16	0.134
866.59	0.134
867.02	0.133
867.45	0.133
867.88	0.135
868.31	0.136
868.75	0.138
869.18	0.133
869.61	0.141
870.04	0.135
870.47	0.139
870.90	0.133
871.33	0.133
871.76	0.133
872.19	0.138
872.62	0.131
873.06	0.129
873.49	0.138
873.92	0.138
874.35	0.136
874.78	0.135
875.21	0.132
875.64	0.132
876.07	0.135
876.50	0.129
876.93	0.137
877.36	0.132
877.79	0.137
878.22	0.136
878.65	0.133
879.08	0.131
879.51	0.133
879.94	0.133
880.37	0.141
880.80	0.142
881.23	0.131
881.67	0.137
882.10	0.131
882.53	0.133
882.96	0.136
883.39	0.135
883.82	0.137
884.25	0.131
884.68	0.138
885.11	0.137
885.54	0.136
885.97	0.134
886.39	0.133
886.82	0.138
887.25	0.138
887.68	0.140
888.11	0.136
888.54	0.138
888.97	0.141
889.40	0.137
889.83	0.136
890.26	0.134
890.69	0.137
891.12	0.136
891.55	0.137
891.98	0.142
892.41	0.132
892.84	0.135
893.27	0.136
893.70	0.131
894.13	0.139
894.56	0.140
894.98	0.141
895.41	0.141
895.84	0.140
896.27	0.140
896.70	0.142
897.13	0.144
897.56	0.137
897.99	0.139
898.42	0.132
898.85	0.142
899.27	0.141
899.70	0.141
900.13	0.140
900.56	0.142
900.99	0.137
901.42	0.139
901.85	0.142
902.28	0.137
902.70	0.139
903.13	0.137
903.56	0.142
903.99	0.133
904.42	0.141
904.85	0.138
905.27	0.138
905.70	0.143
906.13	0.140
906.56	0.139
906.99	0.140
907.42	0.138
907.84	0.139
908.27	0.137
908.70	0.139
909.13	0.140
909.56	0.135
909.98	0.139
910.41	0.137
910.84	0.139
911.27	0.144
911.70	0.137
912.12	0.136
912.55	0.141
912.98	0.139
913.41	0.140
913.84	0.141
914.26	0.139
914.69	0.140
915.12	0.140
915.55	0.138
915.97	0.139
916.40	0.143
916.83	0.139
917.26	0.140
917.68	0.140
918.11	0.140
918.54	0.139
918.97	0.138
919.39	0.138
919.82	0.140
920.25	0.140
920.67	0.141
921.10	0.143
921.53	0.141
921.96	0.146
922.38	0.144
922.81	0.142
923.24	0.148
923.66	0.138
924.09	0.144
924.52	0.148
924.94	0.142
925.37	0.146
925.80	0.146
926.22	0.144
926.65	0.145
927.08	0.147
927.50	0.146
927.93	0.149
928.36	0.145
928.78	0.146
929.21	0.143
929.64	0.148
930.06	0.154
930.49	0.151
930.92	0.155
931.34	0.153
931.77	0.153
932.20	0.154
932.62	0.155
933.05	0.153
933.47	0.159
933.90	0.157
934.33	0.155
934.75	0.160
935.18	0.160
935.61	0.161
936.03	0.162
936.46	0.164
936.88	0.166
937.31	0.169
937.73	0.165
938.16	0.165
938.59	0.172
939.01	0.172
939.44	0.179
939.86	0.184
940.29	0.184
940.71	0.182
941.14	0.182
941.57	0.185
941.99	0.178
942.42	0.186
942.84	0.190
943.27	0.192
943.69	0.190
944.12	0.196
944.54	0.202
944.97	0.197
945.39	0.194
945.82	0.203
946.24	0.207
946.67	0.206
947.09	0.203
947.52	0.205
947.94	0.206
948.37	0.209
948.79	0.218
949.22	0.210
949.64	0.211
950.07	0.220
950.49	0.224
950.92	0.230
951.34	0.222
951.77	0.224
952.19	0.225
952.62	0.241
953.04	0.239
953.47	0.240
953.89	0.246
954.32	0.244
954.74	0.251
955.17	0.248
955.59	0.259
956.01	0.256
956.44	0.257
956.86	0.266
957.29	0.266
957.71	0.266
958.14	0.268
958.56	0.266
958.98	0.274
959.41	0.273
959.83	0.274
960.26	0.273
960.68	0.284
961.10	0.285
961.53	0.281
961.95	0.282
962.38	0.278
962.80	0.282
963.22	0.284
963.65	0.282
964.07	0.293
964.50	0.292
964.92	0.291
965.34	0.292
965.77	0.285
966.19	0.294
966.61	0.291
967.04	0.293
967.46	0.292
967.88	0.302
968.31	0.293
968.73	0.298
969.15	0.295
969.58	0.290
970.00	0.292
970.42	0.297
970.85	0.295
971.27	0.292
971.69	0.293
972.12	0.302
972.54	0.305
972.96	0.293
973.39	0.301
973.81	0.305
974.23	0.299
974.65	0.297
975.08	0.296
975.50	0.300
975.92	0.302
976.35	0.299
976.77	0.300
977.19	0.303
977.61	0.298
978.04	0.296
978.46	0.298
978.88	0.291
979.30	0.300
979.73	0.294
980.15	0.296
980.57	0.302
980.99	0.295
981.42	0.299
981.84	0.305
982.26	0.298
982.68	0.299
983.11	0.299
983.53	0.290
983.95	0.300
984.37	0.296
984.79	0.290
985.22	0.295
985.64	0.295
986.06	0.293
986.48	0.296
986.90	0.293
987.33	0.287
987.75	0.293
988.17	0.287
988.59	0.286
989.01	0.287
989.43	0.286
989.86	0.286
990.28	0.288
990.70	0.292
991.12	0.292
991.54	0.286
991.96	0.279
992.39	0.289
992.81	0.278
993.23	0.278
993.65	0.277
994.07	0.282
994.49	0.279
994.91	0.284
995.34	0.279
995.76	0.277
996.18	0.279
996.60	0.280
997.02	0.277
997.44	0.273
997.86	0.282
998.28	0.267
998.70	0.274
999.12	0.272
999.55	0.270
999.97	0.270
1000.39	0.273
1000.81	0.271
1001.23	0.268
1001.65	0.268
1002.07	0.267
1002.49	0.270
1002.91	0.265
1003.33	0.271
1003.75	0.272
1004.17	0.270
1004.59	0.260
1005.01	0.262
1005.43	0.262
1005.85	0.253
1006.28	0.255
1006.70	0.251
1007.12	0.261
1007.54	0.263
1007.96	0.257
1008.38	0.261
1008.80	0.246
1009.22	0.256
1009.64	0.257
1010.06	0.252
1010.48	0.247
1010.90	0.239
1011.32	0.238
1011.74	0.248
1012.16	0.248
1012.58	0.239
1013.00	0.239
1013.42	0.234
1013.84	0.237
1014.26	0.244
1014.67	0.242
1015.09	0.251
1015.51	0.241
1015.93	0.244
1016.35	0.241
1016.77	0.239
1017.19	0.230
1017.61	0.229
1018.03	0.238
1018.45	0.230
1018.87	0.243
1019.29	0.243
1019.71	0.232
1020.13	0.230
1020.55	0.228
1020.97	0.222
1021.38	0.218
1021.80	0.214
1022.22	0.226
1022.64	0.229
1023.06	0.216
1023.48	0.224
1023.90	0.223
1024.32	0.213
1024.74	0.225
1025.15	0.215
1025.57	0.215
1025.99	0.224
1026.41	0.223
1026.83	0.217
1027.25	0.221
1027.67	0.212
1028.08	0.204
1028.50	0.219
1028.92	0.212
1029.34	0.209
1029.76	0.218
1030.18	0.216
1030.60	0.219
1031.01	0.197
1031.43	0.208
1031.85	0.220
1032.27	0.204
1032.69	0.205
1033.10	0.220
1033.52	0.198
1033.94	0.198
1034.36	0.203
1034.78	0.197
1035.19	0.207
1035.61	0.211
1036.03	0.211
1036.45	0.217
1036.87	0.201
1037.28	0.201
1037.70	0.196
1038.12	0.182
1038.54	0.194
1038.95	0.187
1039.37	0.196
1039.79	0.207
1040.21	0.197
1040.62	0.208
1041.04	0.190
1041.46	0.181
1041.88	0.196
1042.29	0.201
1042.71	0.201
1043.13	0.196
1043.55	0.192
1043.96	0.211
1044.38	0.190
1044.80	0.190
1045.21	0.210
1045.63	0.186
1046.05	0.175
1046.47	0.192
1046.88	0.188
1047.30	0.188
1047.72	0.194
1048.13	0.189
1048.55	0.189
1048.97	0.173
1049.38	0.200
1049.80	0.178
1050.22	0.186
1050.63	0.160
1051.05	0.201
1051.47	0.200
1051.88	0.188
1052.30	0.184
1052.72	0.177
1053.13	0.170
1053.55	0.190
1053.97	0.186
1054.38	0.177
1054.80	0.199
1055.21	0.160
1055.63	0.170
1056.05	0.186
1056.46	0.208
1056.88	0.198
1057.29	0.205
1057.71	0.199
1058.13	0.205
1058.54	0.196
1058.96	0.174
1059.37	0.210
1059.79	0.170
1060.21	0.242
1060.62	0.207
1061.04	0.196
1061.45	0.252
1061.87	0.211
1062.28	0.175
1062.70	0.229
1063.12	0.190
1063.53	0.183
1063.95	0.243
1064.36	0.233
1064.78	0.280
1065.19	0.253
1065.61	0.194
1066.02	0.227
1066.44	0.238
1066.85	0.190
1067.27	0.209
1067.68	0.237
1068.10	0.239
1068.51	0.253
1068.93	0.281
1069.35	0.350
1069.76	0.273
1070.17	0.292
1070.59	0.300
1071.00	0.261
1071.42	0.228
1071.83	0.402
1072.25	0.343
1072.66	0.339
1073.08	0.408
1073.49	0.496
1073.91	0.393
1074.32	0.387
1074.74	0.292
1075.15	0.417
1075.57	0.279
1075.98	0.496
1076.40	0.358
1076.81	0.739
1077.22	0.445
1077.64	0.423
1078.05	0.265
1078.47	0.468
1078.88	0.576
1079.30	1.061
1079.71	-0.000
1080.12	1.284
1080.54	1.001
1080.95	-0.000
1081.37	1.134
1081.78	0.533
1082.19	0.957
1082.61	-0.000
1083.02	0.914
1083.44	0.613
1083.85	1.540
1084.26	-0.000
1084.68	-0.000
1085.09	0.759
1085.50	-0.000
1085.92	-0.000
1086.33	-0.000
1086.74	-0.000
1087.16	-0.000
1087.57	-0.000
1087.98	-0.000
1088.40	-0.000
1088.81	-0.000
1089.22	-0.000
1089.64	-0.000
1090.05	-0.000
1090.46	-0.000
1090.88	-0.000
1091.29	0.840
1091.70	-0.000
1092.12	1.402
1092.53	-0.000
1092.94	-0.000
1093.36	-0.000
1093.77	-0.000
1094.18	1.336
1094.59	-0.000
1095.01	-0.000
1095.42	-0.000
1095.83	-0.000
1096.25	-0.000
1096.66	-0.000
1097.07	-0.000
1097.48	1.982
1097.90	-0.000
1098.31	-0.000
1098.72	-0.000
1099.13	-0.000
>>>>>End Processed Spectral Data<<<<<
