SpectraSuite Data File
++++++++++++++++++++++++++++++++++++
Date: Sun Apr 24 17:58:22 CEST 2016
User: spectrasuite
Dark Spectrum Present: Yes
Reference Spectrum Present: Yes
Number of Sampled Component Spectra: 1
Spectrometers: HR+C0708
Integration Time (usec): 1000 (HR+C0708)
Spectra Averaged: 10 (HR+C0708)
Boxcar Smoothing: 0 (HR+C0708)
Correct for Electrical Dark: No (HR+C0708)
Strobe/Lamp Enabled: No (HR+C0708)
Correct for Detector Non-linearity: No (HR+C0708)
Correct for Stray Light: No (HR+C0708)
Number of Pixels in Processed Spectrum: 2048
>>>>>Begin Processed Spectral Data<<<<<
188.76	-0.000
189.23	-0.000
189.70	-0.000
190.17	-0.000
190.64	-0.000
191.12	-0.000
191.59	-0.000
192.06	-0.000
192.53	-0.000
193.01	-0.000
193.48	-0.000
193.95	-0.000
194.42	-0.000
194.90	-0.000
195.37	-0.000
195.84	-0.000
196.31	-0.000
196.78	-0.000
197.26	-0.000
197.73	-0.000
198.20	-0.000
198.67	-0.000
199.14	-0.000
199.62	-0.000
200.09	-0.000
200.56	-0.000
201.03	-0.000
201.50	-0.000
201.97	-0.000
202.45	-0.000
202.92	0.976
203.39	1.232
203.86	-0.000
204.33	-0.000
204.80	-0.000
205.28	-0.000
205.75	-0.000
206.22	-0.000
206.69	-0.000
207.16	-0.000
207.63	-0.000
208.11	1.001
208.58	-0.000
209.05	-0.000
209.52	-0.000
209.99	-0.000
210.46	-0.000
210.93	-0.000
211.41	-0.000
211.88	-0.000
212.35	-0.000
212.82	-0.000
213.29	-0.000
213.76	1.240
214.23	-0.000
214.70	-0.000
215.18	-0.000
215.65	-0.000
216.12	1.675
216.59	-0.000
217.06	-0.000
217.53	1.359
218.00	-0.000
218.47	-0.000
218.94	-0.000
219.41	-0.000
219.89	-0.000
220.36	-0.000
220.83	-0.000
221.30	-0.000
221.77	-0.000
222.24	-0.000
222.71	-0.000
223.18	-0.000
223.65	-0.000
224.12	-0.000
224.59	-0.000
225.06	1.827
225.54	-0.000
226.01	1.693
226.48	-0.000
226.95	-0.000
227.42	-0.000
227.89	-0.000
228.36	-0.000
228.83	-0.000
229.30	2.392
229.77	-0.000
230.24	1.981
230.71	-0.000
231.18	-0.000
231.65	2.055
232.12	2.093
232.59	2.476
233.06	-0.000
233.53	2.340
234.00	2.591
234.47	-0.000
234.94	-0.000
235.41	2.189
235.88	-0.000
236.35	-0.000
236.82	2.291
237.29	3.927
237.76	-0.000
238.23	-0.000
238.70	3.849
239.17	-0.000
239.64	2.832
240.11	-0.000
240.58	-0.000
241.05	3.130
241.52	-0.000
241.99	3.157
242.46	3.187
242.93	-0.000
243.40	3.151
243.87	2.876
244.34	2.616
244.81	-0.000
245.28	-0.000
245.75	-0.000
246.22	-0.000
246.69	-0.000
247.16	2.874
247.63	3.074
248.10	-0.000
248.57	3.854
249.04	-0.000
249.51	-0.000
249.98	-0.000
250.45	3.935
250.92	4.231
251.39	-0.000
251.85	-0.000
252.32	-0.000
252.79	-0.000
253.26	-0.000
253.73	-0.000
254.20	-0.000
254.67	2.709
255.14	3.079
255.61	3.179
256.08	3.420
256.55	-0.000
257.02	4.268
257.49	3.085
257.95	2.682
258.42	2.862
258.89	2.463
259.36	2.613
259.83	2.614
260.30	2.635
260.77	2.766
261.24	2.496
261.71	2.557
262.17	2.488
262.64	2.349
263.11	2.458
263.58	2.603
264.05	2.316
264.52	2.237
264.99	2.331
265.46	2.264
265.92	2.306
266.39	2.265
266.86	2.227
267.33	2.270
267.80	2.138
268.27	2.209
268.74	2.190
269.20	2.175
269.67	2.153
270.14	2.068
270.61	2.087
271.08	2.098
271.55	2.024
272.01	2.031
272.48	2.060
272.95	2.023
273.42	2.011
273.89	2.014
274.36	1.946
274.82	1.934
275.29	1.964
275.76	1.910
276.23	1.922
276.70	1.936
277.16	1.883
277.63	1.883
278.10	1.854
278.57	1.846
279.04	1.868
279.50	1.824
279.97	1.815
280.44	1.794
280.91	1.787
281.38	1.789
281.84	1.817
282.31	1.780
282.78	1.769
283.25	1.757
283.72	1.729
284.18	1.734
284.65	1.730
285.12	1.708
285.59	1.690
286.05	1.683
286.52	1.687
286.99	1.686
287.46	1.682
287.92	1.662
288.39	1.641
288.86	1.634
289.33	1.631
289.79	1.629
290.26	1.630
290.73	1.624
291.20	1.592
291.66	1.593
292.13	1.575
292.60	1.569
293.07	1.555
293.53	1.552
294.00	1.547
294.47	1.542
294.93	1.519
295.40	1.519
295.87	1.523
296.34	1.523
296.80	1.487
297.27	1.492
297.74	1.473
298.20	1.474
298.67	1.469
299.14	1.448
299.60	1.438
300.07	1.423
300.54	1.421
301.01	1.424
301.47	1.394
301.94	1.398
302.41	1.398
302.87	1.371
303.34	1.393
303.81	1.362
304.27	1.356
304.74	1.352
305.21	1.338
305.67	1.337
306.14	1.322
306.61	1.327
307.07	1.313
307.54	1.323
308.01	1.291
308.47	1.295
308.94	1.297
309.40	1.282
309.87	1.277
310.34	1.275
310.80	1.263
311.27	1.261
311.74	1.260
312.20	1.252
312.67	1.242
313.13	1.220
313.60	1.230
314.07	1.228
314.53	1.213
315.00	1.209
315.47	1.208
315.93	1.200
316.40	1.192
316.86	1.189
317.33	1.184
317.80	1.185
318.26	1.174
318.73	1.174
319.19	1.169
319.66	1.155
320.13	1.158
320.59	1.155
321.06	1.140
321.52	1.151
321.99	1.136
322.45	1.128
322.92	1.126
323.39	1.119
323.85	1.123
324.32	1.115
324.78	1.107
325.25	1.109
325.71	1.105
326.18	1.093
326.64	1.100
327.11	1.089
327.58	1.082
328.04	1.076
328.51	1.076
328.97	1.073
329.44	1.072
329.90	1.050
330.37	1.058
330.83	1.050
331.30	1.052
331.76	1.045
332.23	1.042
332.69	1.038
333.16	1.025
333.62	1.024
334.09	1.020
334.56	1.019
335.02	1.017
335.49	1.014
335.95	0.998
336.42	0.998
336.88	0.993
337.35	0.993
337.81	0.984
338.28	0.982
338.74	0.981
339.20	0.980
339.67	0.977
340.13	0.971
340.60	0.960
341.06	0.951
341.53	0.945
341.99	0.951
342.46	0.938
342.92	0.937
343.39	0.930
343.85	0.930
344.32	0.922
344.78	0.918
345.25	0.913
345.71	0.909
346.17	0.913
346.64	0.900
347.10	0.897
347.57	0.885
348.03	0.874
348.50	0.870
348.96	0.865
349.43	0.860
349.89	0.852
350.35	0.842
350.82	0.851
351.28	0.847
351.75	0.820
352.21	0.825
352.67	0.816
353.14	0.807
353.60	0.804
354.07	0.791
354.53	0.783
355.00	0.778
355.46	0.771
355.92	0.761
356.39	0.765
356.85	0.747
357.31	0.741
357.78	0.739
358.24	0.724
358.71	0.718
359.17	0.709
359.63	0.710
360.10	0.702
360.56	0.695
361.03	0.691
361.49	0.688
361.95	0.681
362.42	0.681
362.88	0.675
363.34	0.664
363.81	0.663
364.27	0.664
364.73	0.657
365.20	0.654
365.66	0.650
366.12	0.645
366.59	0.643
367.05	0.641
367.51	0.639
367.98	0.630
368.44	0.629
368.90	0.630
369.37	0.628
369.83	0.624
370.29	0.621
370.76	0.618
371.22	0.617
371.68	0.618
372.15	0.611
372.61	0.608
373.07	0.607
373.54	0.600
374.00	0.603
374.46	0.602
374.92	0.599
375.39	0.600
375.85	0.595
376.31	0.595
376.78	0.594
377.24	0.591
377.70	0.588
378.16	0.584
378.63	0.582
379.09	0.581
379.55	0.582
380.01	0.579
380.48	0.579
380.94	0.577
381.40	0.572
381.87	0.573
382.33	0.569
382.79	0.566
383.25	0.568
383.72	0.565
384.18	0.564
384.64	0.563
385.10	0.562
385.56	0.560
386.03	0.558
386.49	0.553
386.95	0.552
387.41	0.552
387.88	0.552
388.34	0.550
388.80	0.548
389.26	0.548
389.72	0.551
390.19	0.541
390.65	0.542
391.11	0.539
391.57	0.540
392.04	0.536
392.50	0.535
392.96	0.532
393.42	0.532
393.88	0.535
394.34	0.530
394.81	0.530
395.27	0.521
395.73	0.526
396.19	0.524
396.65	0.522
397.12	0.517
397.58	0.518
398.04	0.518
398.50	0.518
398.96	0.514
399.42	0.516
399.89	0.516
400.35	0.510
400.81	0.509
401.27	0.509
401.73	0.504
402.19	0.502
402.65	0.503
403.12	0.504
403.58	0.499
404.04	0.500
404.50	0.497
404.96	0.494
405.42	0.490
405.88	0.493
406.34	0.494
406.81	0.490
407.27	0.489
407.73	0.488
408.19	0.485
408.65	0.483
409.11	0.480
409.57	0.482
410.03	0.486
410.49	0.481
410.96	0.479
411.42	0.480
411.88	0.474
412.34	0.476
412.80	0.475
413.26	0.468
413.72	0.468
414.18	0.472
414.64	0.466
415.10	0.467
415.56	0.466
416.02	0.467
416.48	0.465
416.95	0.461
417.41	0.462
417.87	0.457
418.33	0.454
418.79	0.456
419.25	0.459
419.71	0.456
420.17	0.455
420.63	0.453
421.09	0.451
421.55	0.448
422.01	0.451
422.47	0.453
422.93	0.450
423.39	0.448
423.85	0.448
424.31	0.443
424.77	0.445
425.23	0.446
425.69	0.445
426.15	0.443
426.61	0.440
427.07	0.438
427.53	0.433
427.99	0.436
428.45	0.435
428.91	0.436
429.37	0.433
429.83	0.430
430.29	0.433
430.75	0.434
431.21	0.433
431.67	0.432
432.13	0.427
432.59	0.424
433.05	0.427
433.51	0.422
433.97	0.422
434.43	0.426
434.89	0.421
435.35	0.422
435.81	0.422
436.27	0.418
436.73	0.418
437.19	0.414
437.65	0.417
438.11	0.415
438.57	0.412
439.03	0.412
439.48	0.410
439.94	0.409
440.40	0.407
440.86	0.410
441.32	0.405
441.78	0.410
442.24	0.406
442.70	0.405
443.16	0.403
443.62	0.398
444.08	0.405
444.54	0.402
444.99	0.398
445.45	0.401
445.91	0.400
446.37	0.398
446.83	0.393
447.29	0.396
447.75	0.394
448.21	0.398
448.67	0.392
449.12	0.392
449.58	0.392
450.04	0.387
450.50	0.391
450.96	0.392
451.42	0.386
451.88	0.386
452.34	0.385
452.79	0.383
453.25	0.389
453.71	0.382
454.17	0.383
454.63	0.387
455.09	0.383
455.55	0.381
456.00	0.378
456.46	0.377
456.92	0.378
457.38	0.378
457.84	0.375
458.30	0.371
458.75	0.375
459.21	0.370
459.67	0.374
460.13	0.371
460.59	0.369
461.04	0.367
461.50	0.370
461.96	0.368
462.42	0.367
462.88	0.365
463.33	0.365
463.79	0.364
464.25	0.365
464.71	0.363
465.17	0.363
465.62	0.363
466.08	0.362
466.54	0.364
467.00	0.364
467.46	0.363
467.91	0.360
468.37	0.360
468.83	0.357
469.29	0.358
469.74	0.361
470.20	0.357
470.66	0.354
471.12	0.352
471.57	0.352
472.03	0.355
472.49	0.352
472.95	0.353
473.40	0.351
473.86	0.349
474.32	0.350
474.78	0.349
475.23	0.346
475.69	0.347
476.15	0.347
476.60	0.349
477.06	0.347
477.52	0.342
477.98	0.345
478.43	0.342
478.89	0.340
479.35	0.341
479.80	0.343
480.26	0.342
480.72	0.338
481.18	0.340
481.63	0.339
482.09	0.338
482.55	0.338
483.00	0.336
483.46	0.335
483.92	0.333
484.37	0.335
484.83	0.332
485.29	0.332
485.74	0.328
486.20	0.330
486.66	0.331
487.11	0.334
487.57	0.332
488.03	0.328
488.48	0.328
488.94	0.326
489.40	0.328
489.85	0.329
490.31	0.327
490.77	0.326
491.22	0.324
491.68	0.324
492.13	0.322
492.59	0.322
493.05	0.322
493.50	0.323
493.96	0.322
494.42	0.319
494.87	0.317
495.33	0.319
495.78	0.320
496.24	0.321
496.70	0.316
497.15	0.317
497.61	0.315
498.06	0.315
498.52	0.312
498.98	0.315
499.43	0.315
499.89	0.314
500.34	0.312
500.80	0.313
501.25	0.313
501.71	0.309
502.17	0.311
502.62	0.313
503.08	0.307
503.53	0.307
503.99	0.308
504.44	0.307
504.90	0.309
505.36	0.306
505.81	0.308
506.27	0.306
506.72	0.305
507.18	0.306
507.63	0.304
508.09	0.304
508.54	0.302
509.00	0.304
509.45	0.305
509.91	0.301
510.36	0.302
510.82	0.299
511.27	0.301
511.73	0.298
512.19	0.296
512.64	0.297
513.10	0.297
513.55	0.299
514.01	0.294
514.46	0.297
514.92	0.295
515.37	0.297
515.83	0.296
516.28	0.295
516.73	0.293
517.19	0.295
517.64	0.289
518.10	0.290
518.55	0.290
519.01	0.290
519.46	0.290
519.92	0.290
520.37	0.289
520.83	0.288
521.28	0.289
521.74	0.289
522.19	0.290
522.65	0.286
523.10	0.288
523.55	0.284
524.01	0.287
524.46	0.285
524.92	0.283
525.37	0.285
525.83	0.284
526.28	0.284
526.73	0.284
527.19	0.286
527.64	0.284
528.10	0.282
528.55	0.282
529.01	0.284
529.46	0.281
529.91	0.278
530.37	0.281
530.82	0.280
531.28	0.277
531.73	0.277
532.18	0.278
532.64	0.278
533.09	0.277
533.54	0.276
534.00	0.277
534.45	0.278
534.91	0.280
535.36	0.276
535.81	0.274
536.27	0.275
536.72	0.279
537.17	0.275
537.63	0.276
538.08	0.271
538.54	0.274
538.99	0.274
539.44	0.275
539.90	0.273
540.35	0.271
540.80	0.271
541.26	0.269
541.71	0.270
542.16	0.270
542.62	0.272
543.07	0.269
543.52	0.271
543.98	0.272
544.43	0.268
544.88	0.268
545.34	0.271
545.79	0.268
546.24	0.267
546.69	0.269
547.15	0.268
547.60	0.267
548.05	0.268
548.51	0.264
548.96	0.266
549.41	0.268
549.86	0.267
550.32	0.268
550.77	0.267
551.22	0.266
551.68	0.265
552.13	0.265
552.58	0.266
553.03	0.266
553.49	0.264
553.94	0.264
554.39	0.265
554.84	0.265
555.30	0.265
555.75	0.265
556.20	0.264
556.65	0.264
557.11	0.264
557.56	0.263
558.01	0.267
558.46	0.265
558.92	0.265
559.37	0.260
559.82	0.262
560.27	0.263
560.72	0.264
561.18	0.263
561.63	0.260
562.08	0.257
562.53	0.261
562.99	0.261
563.44	0.260
563.89	0.261
564.34	0.260
564.79	0.259
565.25	0.259
565.70	0.258
566.15	0.258
566.60	0.257
567.05	0.257
567.50	0.259
567.96	0.259
568.41	0.257
568.86	0.258
569.31	0.256
569.76	0.256
570.21	0.259
570.67	0.257
571.12	0.258
571.57	0.256
572.02	0.255
572.47	0.254
572.92	0.256
573.37	0.256
573.83	0.254
574.28	0.255
574.73	0.255
575.18	0.255
575.63	0.257
576.08	0.254
576.53	0.254
576.98	0.254
577.44	0.252
577.89	0.256
578.34	0.254
578.79	0.253
579.24	0.253
579.69	0.255
580.14	0.252
580.59	0.253
581.04	0.253
581.49	0.254
581.95	0.253
582.40	0.253
582.85	0.253
583.30	0.254
583.75	0.254
584.20	0.254
584.65	0.253
585.10	0.254
585.55	0.252
586.00	0.254
586.45	0.255
586.90	0.255
587.35	0.255
587.80	0.253
588.25	0.253
588.71	0.254
589.16	0.254
589.61	0.255
590.06	0.253
590.51	0.255
590.96	0.255
591.41	0.254
591.86	0.255
592.31	0.256
592.76	0.255
593.21	0.256
593.66	0.257
594.11	0.257
594.56	0.257
595.01	0.258
595.46	0.258
595.91	0.258
596.36	0.256
596.81	0.260
597.26	0.257
597.71	0.258
598.16	0.258
598.61	0.258
599.06	0.258
599.51	0.260
599.96	0.259
600.41	0.259
600.86	0.259
601.31	0.261
601.76	0.260
602.21	0.259
602.65	0.261
603.10	0.260
603.55	0.260
604.00	0.258
604.45	0.260
604.90	0.261
605.35	0.257
605.80	0.260
606.25	0.263
606.70	0.262
607.15	0.259
607.60	0.262
608.05	0.259
608.50	0.259
608.95	0.259
609.39	0.263
609.84	0.261
610.29	0.262
610.74	0.261
611.19	0.259
611.64	0.258
612.09	0.260
612.54	0.260
612.99	0.261
613.44	0.261
613.88	0.261
614.33	0.259
614.78	0.259
615.23	0.260
615.68	0.260
616.13	0.259
616.58	0.259
617.03	0.262
617.47	0.261
617.92	0.260
618.37	0.258
618.82	0.260
619.27	0.257
619.72	0.259
620.17	0.258
620.61	0.258
621.06	0.259
621.51	0.260
621.96	0.258
622.41	0.260
622.86	0.257
623.30	0.259
623.75	0.262
624.20	0.259
624.65	0.258
625.10	0.260
625.54	0.259
625.99	0.260
626.44	0.259
626.89	0.260
627.34	0.260
627.78	0.258
628.23	0.259
628.68	0.259
629.13	0.258
629.58	0.260
630.02	0.260
630.47	0.258
630.92	0.263
631.37	0.260
631.81	0.260
632.26	0.261
632.71	0.262
633.16	0.259
633.61	0.259
634.05	0.258
634.50	0.260
634.95	0.261
635.40	0.262
635.84	0.262
636.29	0.263
636.74	0.264
637.18	0.265
637.63	0.262
638.08	0.263
638.53	0.265
638.97	0.263
639.42	0.266
639.87	0.266
640.32	0.264
640.76	0.266
641.21	0.268
641.66	0.266
642.10	0.268
642.55	0.266
643.00	0.267
643.44	0.268
643.89	0.267
644.34	0.267
644.79	0.268
645.23	0.269
645.68	0.270
646.13	0.269
646.57	0.271
647.02	0.269
647.47	0.273
647.91	0.272
648.36	0.271
648.81	0.274
649.25	0.271
649.70	0.271
650.15	0.272
650.59	0.273
651.04	0.272
651.48	0.274
651.93	0.272
652.38	0.272
652.82	0.274
653.27	0.272
653.72	0.275
654.16	0.273
654.61	0.274
655.06	0.273
655.50	0.272
655.95	0.270
656.39	0.266
656.84	0.270
657.29	0.276
657.73	0.274
658.18	0.273
658.62	0.273
659.07	0.273
659.52	0.273
659.96	0.272
660.41	0.273
660.85	0.270
661.30	0.268
661.74	0.270
662.19	0.270
662.64	0.270
663.08	0.269
663.53	0.267
663.97	0.267
664.42	0.268
664.86	0.264
665.31	0.266
665.75	0.265
666.20	0.264
666.65	0.264
667.09	0.264
667.54	0.263
667.98	0.259
668.43	0.259
668.87	0.259
669.32	0.259
669.76	0.257
670.21	0.257
670.65	0.252
671.10	0.254
671.54	0.254
671.99	0.249
672.43	0.247
672.88	0.247
673.32	0.247
673.77	0.242
674.21	0.243
674.66	0.240
675.10	0.238
675.55	0.237
675.99	0.236
676.44	0.233
676.88	0.233
677.33	0.231
677.77	0.230
678.22	0.225
678.66	0.223
679.11	0.223
679.55	0.222
679.99	0.218
680.44	0.219
680.88	0.216
681.33	0.214
681.77	0.210
682.22	0.212
682.66	0.210
683.11	0.206
683.55	0.206
683.99	0.205
684.44	0.200
684.88	0.198
685.33	0.200
685.77	0.196
686.21	0.195
686.66	0.195
687.10	0.191
687.55	0.192
687.99	0.193
688.44	0.190
688.88	0.185
689.32	0.188
689.77	0.185
690.21	0.184
690.65	0.181
691.10	0.181
691.54	0.180
691.99	0.180
692.43	0.176
692.87	0.176
693.32	0.176
693.76	0.177
694.20	0.175
694.65	0.175
695.09	0.175
695.53	0.170
695.98	0.171
696.42	0.171
696.86	0.168
697.31	0.170
697.75	0.168
698.19	0.168
698.64	0.166
699.08	0.164
699.52	0.165
699.97	0.169
700.41	0.166
700.85	0.165
701.30	0.163
701.74	0.165
702.18	0.162
702.63	0.161
703.07	0.162
703.51	0.163
703.96	0.161
704.40	0.159
704.84	0.162
705.28	0.160
705.73	0.162
706.17	0.160
706.61	0.160
707.06	0.158
707.50	0.158
707.94	0.155
708.38	0.155
708.83	0.159
709.27	0.155
709.71	0.156
710.15	0.156
710.60	0.154
711.04	0.155
711.48	0.160
711.92	0.158
712.37	0.155
712.81	0.157
713.25	0.155
713.69	0.156
714.13	0.157
714.58	0.155
715.02	0.155
715.46	0.155
715.90	0.155
716.35	0.152
716.79	0.158
717.23	0.154
717.67	0.156
718.11	0.156
718.56	0.156
719.00	0.156
719.44	0.153
719.88	0.151
720.32	0.154
720.76	0.155
721.21	0.153
721.65	0.152
722.09	0.152
722.53	0.152
722.97	0.154
723.41	0.150
723.86	0.154
724.30	0.152
724.74	0.155
725.18	0.152
725.62	0.151
726.06	0.151
726.50	0.151
726.95	0.149
727.39	0.152
727.83	0.150
728.27	0.152
728.71	0.151
729.15	0.154
729.59	0.155
730.03	0.149
730.48	0.152
730.92	0.148
731.36	0.152
731.80	0.150
732.24	0.151
732.68	0.152
733.12	0.150
733.56	0.148
734.00	0.150
734.44	0.153
734.89	0.151
735.33	0.151
735.77	0.155
736.21	0.150
736.65	0.149
737.09	0.151
737.53	0.153
737.97	0.152
738.41	0.152
738.85	0.154
739.29	0.151
739.73	0.151
740.17	0.150
740.61	0.151
741.05	0.151
741.49	0.150
741.93	0.148
742.37	0.148
742.81	0.149
743.26	0.150
743.70	0.150
744.14	0.147
744.58	0.148
745.02	0.148
745.46	0.150
745.90	0.151
746.34	0.151
746.78	0.149
747.22	0.148
747.66	0.151
748.10	0.149
748.54	0.147
748.98	0.148
749.42	0.147
749.86	0.146
750.29	0.148
750.73	0.144
751.17	0.145
751.61	0.146
752.05	0.147
752.49	0.145
752.93	0.144
753.37	0.146
753.81	0.146
754.25	0.146
754.69	0.143
755.13	0.144
755.57	0.144
756.01	0.146
756.45	0.146
756.89	0.143
757.33	0.147
757.77	0.145
758.21	0.147
758.64	0.145
759.08	0.142
759.52	0.144
759.96	0.145
760.40	0.146
760.84	0.141
761.28	0.143
761.72	0.143
762.16	0.144
762.60	0.143
763.03	0.141
763.47	0.142
763.91	0.143
764.35	0.141
764.79	0.140
765.23	0.141
765.67	0.141
766.11	0.140
766.54	0.138
766.98	0.144
767.42	0.143
767.86	0.138
768.30	0.142
768.74	0.142
769.17	0.143
769.61	0.144
770.05	0.142
770.49	0.141
770.93	0.141
771.37	0.138
771.80	0.140
772.24	0.137
772.68	0.137
773.12	0.140
773.56	0.137
774.00	0.140
774.43	0.135
774.87	0.137
775.31	0.139
775.75	0.137
776.19	0.136
776.62	0.139
777.06	0.139
777.50	0.137
777.94	0.139
778.37	0.136
778.81	0.137
779.25	0.137
779.69	0.137
780.13	0.140
780.56	0.138
781.00	0.137
781.44	0.139
781.88	0.138
782.31	0.136
782.75	0.136
783.19	0.139
783.63	0.136
784.06	0.134
784.50	0.139
784.94	0.136
785.37	0.135
785.81	0.137
786.25	0.137
786.69	0.137
787.12	0.136
787.56	0.135
788.00	0.135
788.43	0.138
788.87	0.138
789.31	0.134
789.75	0.136
790.18	0.132
790.62	0.134
791.06	0.132
791.49	0.134
791.93	0.135
792.37	0.134
792.80	0.132
793.24	0.135
793.68	0.133
794.11	0.133
794.55	0.134
794.99	0.137
795.42	0.135
795.86	0.138
796.30	0.135
796.73	0.134
797.17	0.131
797.61	0.133
798.04	0.132
798.48	0.138
798.91	0.133
799.35	0.130
799.79	0.137
800.22	0.133
800.66	0.129
801.10	0.130
801.53	0.134
801.97	0.137
802.40	0.137
802.84	0.130
803.28	0.130
803.71	0.131
804.15	0.130
804.58	0.131
805.02	0.132
805.46	0.133
805.89	0.130
806.33	0.132
806.76	0.134
807.20	0.131
807.63	0.129
808.07	0.134
808.51	0.130
808.94	0.127
809.38	0.129
809.81	0.128
810.25	0.133
810.68	0.133
811.12	0.132
811.55	0.137
811.99	0.129
812.42	0.130
812.86	0.130
813.29	0.129
813.73	0.131
814.17	0.130
814.60	0.131
815.04	0.132
815.47	0.129
815.91	0.128
816.34	0.132
816.78	0.129
817.21	0.134
817.65	0.135
818.08	0.125
818.52	0.132
818.95	0.130
819.39	0.130
819.82	0.130
820.25	0.130
820.69	0.130
821.12	0.131
821.56	0.130
821.99	0.131
822.43	0.130
822.86	0.129
823.30	0.132
823.73	0.129
824.17	0.128
824.60	0.129
825.04	0.129
825.47	0.125
825.90	0.127
826.34	0.133
826.77	0.131
827.21	0.134
827.64	0.131
828.08	0.130
828.51	0.130
828.94	0.122
829.38	0.129
829.81	0.132
830.25	0.132
830.68	0.130
831.11	0.134
831.55	0.128
831.98	0.138
832.42	0.133
832.85	0.136
833.28	0.136
833.72	0.133
834.15	0.130
834.58	0.134
835.02	0.133
835.45	0.135
835.88	0.135
836.32	0.134
836.75	0.133
837.19	0.139
837.62	0.130
838.05	0.133
838.49	0.134
838.92	0.138
839.35	0.136
839.79	0.130
840.22	0.137
840.65	0.133
841.09	0.133
841.52	0.133
841.95	0.135
842.39	0.134
842.82	0.130
843.25	0.132
843.68	0.132
844.12	0.134
844.55	0.129
844.98	0.133
845.42	0.131
845.85	0.127
846.28	0.135
846.71	0.133
847.15	0.135
847.58	0.141
848.01	0.137
848.45	0.137
848.88	0.142
849.31	0.131
849.74	0.132
850.18	0.136
850.61	0.138
851.04	0.138
851.47	0.132
851.91	0.135
852.34	0.135
852.77	0.137
853.20	0.130
853.64	0.136
854.07	0.131
854.50	0.136
854.93	0.138
855.36	0.133
855.80	0.130
856.23	0.134
856.66	0.139
857.09	0.135
857.52	0.134
857.96	0.124
858.39	0.136
858.82	0.131
859.25	0.133
859.68	0.135
860.12	0.131
860.55	0.133
860.98	0.134
861.41	0.127
861.84	0.136
862.27	0.133
862.71	0.129
863.14	0.131
863.57	0.133
864.00	0.133
864.43	0.136
864.86	0.131
865.30	0.139
865.73	0.138
866.16	0.138
866.59	0.134
867.02	0.135
867.45	0.132
867.88	0.139
868.31	0.137
868.75	0.130
869.18	0.139
869.61	0.135
870.04	0.136
870.47	0.142
870.90	0.136
871.33	0.135
871.76	0.138
872.19	0.145
872.62	0.137
873.06	0.130
873.49	0.136
873.92	0.139
874.35	0.133
874.78	0.137
875.21	0.135
875.64	0.126
876.07	0.137
876.50	0.138
876.93	0.143
877.36	0.141
877.79	0.136
878.22	0.129
878.65	0.140
879.08	0.134
879.51	0.140
879.94	0.135
880.37	0.138
880.80	0.142
881.23	0.138
881.67	0.139
882.10	0.140
882.53	0.138
882.96	0.134
883.39	0.139
883.82	0.128
884.25	0.134
884.68	0.140
885.11	0.135
885.54	0.138
885.97	0.136
886.39	0.135
886.82	0.138
887.25	0.138
887.68	0.143
888.11	0.137
888.54	0.133
888.97	0.140
889.40	0.143
889.83	0.131
890.26	0.134
890.69	0.138
891.12	0.138
891.55	0.135
891.98	0.137
892.41	0.134
892.84	0.140
893.27	0.139
893.70	0.136
894.13	0.140
894.56	0.137
894.98	0.137
895.41	0.139
895.84	0.139
896.27	0.143
896.70	0.140
897.13	0.143
897.56	0.142
897.99	0.138
898.42	0.133
898.85	0.141
899.27	0.135
899.70	0.140
900.13	0.139
900.56	0.138
900.99	0.135
901.42	0.142
901.85	0.140
902.28	0.138
902.70	0.140
903.13	0.146
903.56	0.144
903.99	0.138
904.42	0.141
904.85	0.143
905.27	0.136
905.70	0.139
906.13	0.140
906.56	0.136
906.99	0.141
907.42	0.140
907.84	0.135
908.27	0.141
908.70	0.143
909.13	0.139
909.56	0.137
909.98	0.141
910.41	0.139
910.84	0.138
911.27	0.140
911.70	0.136
912.12	0.135
912.55	0.135
912.98	0.138
913.41	0.138
913.84	0.140
914.26	0.136
914.69	0.137
915.12	0.137
915.55	0.139
915.97	0.142
916.40	0.140
916.83	0.137
917.26	0.142
917.68	0.140
918.11	0.141
918.54	0.136
918.97	0.137
919.39	0.136
919.82	0.141
920.25	0.137
920.67	0.136
921.10	0.144
921.53	0.141
921.96	0.142
922.38	0.139
922.81	0.144
923.24	0.147
923.66	0.141
924.09	0.139
924.52	0.142
924.94	0.144
925.37	0.143
925.80	0.147
926.22	0.143
926.65	0.142
927.08	0.146
927.50	0.145
927.93	0.143
928.36	0.146
928.78	0.149
929.21	0.148
929.64	0.150
930.06	0.152
930.49	0.154
930.92	0.152
931.34	0.153
931.77	0.155
932.20	0.154
932.62	0.153
933.05	0.155
933.47	0.158
933.90	0.159
934.33	0.155
934.75	0.159
935.18	0.159
935.61	0.162
936.03	0.161
936.46	0.165
936.88	0.165
937.31	0.170
937.73	0.171
938.16	0.167
938.59	0.173
939.01	0.178
939.44	0.174
939.86	0.179
940.29	0.177
940.71	0.181
941.14	0.186
941.57	0.184
941.99	0.185
942.42	0.187
942.84	0.193
943.27	0.197
943.69	0.200
944.12	0.191
944.54	0.203
944.97	0.203
945.39	0.198
945.82	0.196
946.24	0.202
946.67	0.200
947.09	0.203
947.52	0.206
947.94	0.208
948.37	0.218
948.79	0.209
949.22	0.219
949.64	0.216
950.07	0.223
950.49	0.227
950.92	0.222
951.34	0.223
951.77	0.228
952.19	0.230
952.62	0.238
953.04	0.240
953.47	0.241
953.89	0.246
954.32	0.249
954.74	0.247
955.17	0.252
955.59	0.259
956.01	0.255
956.44	0.260
956.86	0.266
957.29	0.264
957.71	0.274
958.14	0.272
958.56	0.274
958.98	0.277
959.41	0.270
959.83	0.274
960.26	0.272
960.68	0.282
961.10	0.280
961.53	0.283
961.95	0.283
962.38	0.282
962.80	0.282
963.22	0.283
963.65	0.290
964.07	0.284
964.50	0.297
964.92	0.294
965.34	0.291
965.77	0.286
966.19	0.289
966.61	0.295
967.04	0.298
967.46	0.289
967.88	0.298
968.31	0.293
968.73	0.285
969.15	0.287
969.58	0.296
970.00	0.294
970.42	0.297
970.85	0.297
971.27	0.299
971.69	0.290
972.12	0.297
972.54	0.301
972.96	0.305
973.39	0.298
973.81	0.296
974.23	0.302
974.65	0.301
975.08	0.298
975.50	0.299
975.92	0.298
976.35	0.294
976.77	0.297
977.19	0.299
977.61	0.296
978.04	0.296
978.46	0.299
978.88	0.302
979.30	0.301
979.73	0.299
980.15	0.294
980.57	0.300
980.99	0.304
981.42	0.301
981.84	0.294
982.26	0.299
982.68	0.297
983.11	0.300
983.53	0.293
983.95	0.300
984.37	0.298
984.79	0.299
985.22	0.294
985.64	0.301
986.06	0.299
986.48	0.294
986.90	0.296
987.33	0.292
987.75	0.286
988.17	0.289
988.59	0.287
989.01	0.287
989.43	0.290
989.86	0.287
990.28	0.294
990.70	0.287
991.12	0.293
991.54	0.294
991.96	0.289
992.39	0.285
992.81	0.286
993.23	0.284
993.65	0.276
994.07	0.286
994.49	0.281
994.91	0.281
995.34	0.278
995.76	0.278
996.18	0.287
996.60	0.278
997.02	0.281
997.44	0.279
997.86	0.273
998.28	0.276
998.70	0.283
999.12	0.271
999.55	0.273
999.97	0.274
1000.39	0.269
1000.81	0.273
1001.23	0.270
1001.65	0.274
1002.07	0.275
1002.49	0.271
1002.91	0.267
1003.33	0.269
1003.75	0.271
1004.17	0.269
1004.59	0.261
1005.01	0.263
1005.43	0.264
1005.85	0.253
1006.28	0.257
1006.70	0.256
1007.12	0.263
1007.54	0.257
1007.96	0.254
1008.38	0.252
1008.80	0.253
1009.22	0.255
1009.64	0.247
1010.06	0.247
1010.48	0.257
1010.90	0.249
1011.32	0.255
1011.74	0.244
1012.16	0.252
1012.58	0.249
1013.00	0.239
1013.42	0.243
1013.84	0.250
1014.26	0.242
1014.67	0.245
1015.09	0.241
1015.51	0.241
1015.93	0.246
1016.35	0.248
1016.77	0.247
1017.19	0.237
1017.61	0.236
1018.03	0.241
1018.45	0.248
1018.87	0.243
1019.29	0.242
1019.71	0.237
1020.13	0.238
1020.55	0.226
1020.97	0.228
1021.38	0.220
1021.80	0.233
1022.22	0.226
1022.64	0.212
1023.06	0.226
1023.48	0.214
1023.90	0.222
1024.32	0.218
1024.74	0.221
1025.15	0.227
1025.57	0.224
1025.99	0.217
1026.41	0.227
1026.83	0.206
1027.25	0.215
1027.67	0.227
1028.08	0.203
1028.50	0.229
1028.92	0.229
1029.34	0.207
1029.76	0.233
1030.18	0.218
1030.60	0.212
1031.01	0.215
1031.43	0.221
1031.85	0.209
1032.27	0.226
1032.69	0.190
1033.10	0.226
1033.52	0.210
1033.94	0.201
1034.36	0.211
1034.78	0.200
1035.19	0.206
1035.61	0.207
1036.03	0.202
1036.45	0.196
1036.87	0.220
1037.28	0.196
1037.70	0.200
1038.12	0.198
1038.54	0.206
1038.95	0.205
1039.37	0.200
1039.79	0.198
1040.21	0.201
1040.62	0.203
1041.04	0.187
1041.46	0.204
1041.88	0.182
1042.29	0.192
1042.71	0.202
1043.13	0.201
1043.55	0.193
1043.96	0.195
1044.38	0.199
1044.80	0.210
1045.21	0.192
1045.63	0.184
1046.05	0.193
1046.47	0.192
1046.88	0.199
1047.30	0.221
1047.72	0.167
1048.13	0.196
1048.55	0.201
1048.97	0.183
1049.38	0.213
1049.80	0.188
1050.22	0.215
1050.63	0.170
1051.05	0.208
1051.47	0.214
1051.88	0.216
1052.30	0.195
1052.72	0.184
1053.13	0.202
1053.55	0.192
1053.97	0.185
1054.38	0.205
1054.80	0.216
1055.21	0.227
1055.63	0.193
1056.05	0.173
1056.46	0.215
1056.88	0.213
1057.29	0.216
1057.71	0.222
1058.13	0.218
1058.54	0.217
1058.96	0.200
1059.37	0.218
1059.79	0.230
1060.21	0.213
1060.62	0.223
1061.04	0.229
1061.45	0.219
1061.87	0.185
1062.28	0.228
1062.70	0.229
1063.12	0.210
1063.53	0.223
1063.95	0.188
1064.36	0.259
1064.78	0.299
1065.19	0.303
1065.61	0.228
1066.02	0.311
1066.44	0.261
1066.85	0.223
1067.27	0.242
1067.68	0.250
1068.10	0.276
1068.51	0.270
1068.93	0.332
1069.35	0.412
1069.76	0.314
1070.17	0.292
1070.59	0.256
1071.00	0.314
1071.42	0.438
1071.83	0.434
1072.25	0.551
1072.66	0.315
1073.08	0.542
1073.49	0.577
1073.91	0.384
1074.32	0.433
1074.74	0.341
1075.15	0.485
1075.57	0.241
1075.98	0.773
1076.40	0.387
1076.81	0.793
1077.22	0.541
1077.64	0.482
1078.05	0.760
1078.47	0.471
1078.88	0.655
1079.30	1.089
1079.71	1.757
1080.12	-0.000
1080.54	-0.000
1080.95	0.695
1081.37	1.531
1081.78	1.005
1082.19	1.258
1082.61	-0.000
1083.02	-0.000
1083.44	-0.000
1083.85	0.762
1084.26	-0.000
1084.68	-0.000
1085.09	-0.000
1085.50	1.380
1085.92	-0.000
1086.33	-0.000
1086.74	-0.000
1087.16	-0.000
1087.57	-0.000
1087.98	-0.000
1088.40	-0.000
1088.81	-0.000
1089.22	-0.000
1089.64	-0.000
1090.05	-0.000
1090.46	-0.000
1090.88	-0.000
1091.29	-0.000
1091.70	-0.000
1092.12	-0.000
1092.53	-0.000
1092.94	-0.000
1093.36	-0.000
1093.77	-0.000
1094.18	-0.000
1094.59	-0.000
1095.01	-0.000
1095.42	-0.000
1095.83	-0.000
1096.25	-0.000
1096.66	-0.000
1097.07	-0.000
1097.48	-0.000
1097.90	-0.000
1098.31	-0.000
1098.72	-0.000
1099.13	-0.000
>>>>>End Processed Spectral Data<<<<<
